> -Z    1    11.786     1.000     0.000    11.755     0.863     0.000   184.199   102.299    29.200  -1.00   1   1   1   1    0.1049E+02   0.4943E+16   0.0000E+00    -4.998    10.674  2.35573e+10
    102.30800000     29.17770000     -0.00000000      0.00000000      0.00000000
    102.28880000     29.22174000     -0.00000000      5.22386452      0.01076446
    102.28947548     29.22195613     -2.00000000      5.22293061      2.01198027
    102.30867208     29.17792400     -2.00000000      0.00000000      0.00000000
> -Z    1    11.787     1.000     0.000    11.756     0.864     0.000   184.201   102.299    29.200  -3.00   1   1   1   2    0.1048E+02   0.4943E+16   0.0000E+00    -4.999    10.675  2.98618e+10
    102.30867208     29.17792400     -2.00000000      0.00000000      0.00000000
    102.28947548     29.22195613     -2.00000000      5.22293061      2.01198027
    102.29015096     29.22217225     -4.00000000      5.22199668      4.01319700
    102.30934416     29.17814800     -4.00000000      0.00000004      4.00243988
> -Z    1    11.788     1.000     0.000    11.757     0.864     0.000   184.203   102.300    29.200  -5.00   1   1   1   3    0.1048E+02   0.4942E+16   0.0000E+00    -5.000    10.675  3.33652e+10
    102.30934416     29.17814800     -4.00000000      0.00000004      4.00243988
    102.29015096     29.22217225     -4.00000000      5.22199668      4.01319700
    102.29082644     29.22238838     -6.00000000      5.22106273      6.01441466
    102.31001624     29.17837200     -6.00000000      0.00000004      4.00243988
> -Z    1    11.789     1.000     0.000    11.758     0.865     0.000   184.205   102.301    29.200  -7.00   1   1   1   4    0.1048E+02   0.4942E+16   0.0000E+00    -5.001    10.676  3.44971e+10
    102.31001624     29.17837200     -6.00000000      0.00000004      4.00243988
    102.29082644     29.22238838     -6.00000000      5.22106273      6.01441466
    102.29150192     29.22260451     -8.00000000      5.22012878      8.01563325
    102.31068831     29.17859600     -8.00000000      0.00000003      8.00488359
> -Z    1    11.790     1.000     0.000    11.758     0.865     0.000   184.207   102.301    29.201  -9.00   1   1   1   5    0.1048E+02   0.4941E+16   0.0000E+00    -5.002    10.677  3.47923e+10
    102.31068831     29.17859600     -8.00000000      0.00000003      8.00488359
    102.29150192     29.22260451     -8.00000000      5.22012878      8.01563325
    102.29217740     29.22282063    -10.00000000      5.21919482     10.01701538
    102.31136039     29.17882000    -10.00000000     -0.00000000     10.00610689
> -Z    1    11.772     1.000     0.000    11.741     0.857     0.000   184.174   102.280    29.244  -1.00   1   1   2   1    0.1048E+02   0.4935E+16   0.0000E+00    -4.987    10.663  2.26405e+10
    102.28880000     29.22174000     -0.00000000      5.22386452      0.01076446
    102.26960000     29.26578000     -0.00000000     10.44780218      0.01614669
    102.27027888     29.26598825     -2.00000000     10.44593429      2.01736075
    102.28947548     29.22195613     -2.00000000      5.22293061      2.01198027
> -Z    1    11.773     1.000     0.000    11.741     0.857     0.000   184.176   102.280    29.244  -3.00   1   1   2   2    0.1048E+02   0.4935E+16   0.0000E+00    -4.988    10.664  2.91325e+10
    102.28947548     29.22195613     -2.00000000      5.22293061      2.01198027
    102.27027888     29.26598825     -2.00000000     10.44593429      2.01736075
    102.27095776     29.26619651     -4.00000000     10.44406639      4.01857572
    102.29015096     29.22217225     -4.00000000      5.22199668      4.01319700
> -Z    1    11.774     1.000     0.000    11.742     0.858     0.000   184.178   102.281    29.244  -5.00   1   1   2   3    0.1048E+02   0.4934E+16   0.0000E+00    -4.989    10.664  3.28773e+10
    102.29015096     29.22217225     -4.00000000      5.22199668      4.01319700
    102.27095776     29.26619651     -4.00000000     10.44406639      4.01857572
    102.27163664     29.26640476     -6.00000000     10.44219848      6.01979158
    102.29082644     29.22238838     -6.00000000      5.22106273      6.01441466
> -Z    1    11.775     1.000     0.000    11.743     0.858     0.000   184.180   102.282    29.245  -7.00   1   1   2   4    0.1047E+02   0.4934E+16   0.0000E+00    -4.990    10.665  3.40178e+10
    102.29082644     29.22238838     -6.00000000      5.22106273      6.01441466
    102.27163664     29.26640476     -6.00000000     10.44219848      6.01979158
    102.27231552     29.26661301     -8.00000000     10.44033055      8.02100834
    102.29150192     29.22260451     -8.00000000      5.22012878      8.01563325
> -Z    1    11.776     1.000     0.000    11.744     0.859     0.000   184.182   102.282    29.245  -9.00   1   1   2   5    0.1047E+02   0.4933E+16   0.0000E+00    -4.991    10.666  3.4174e+10
    102.29150192     29.22260451     -8.00000000      5.22012878      8.01563325
    102.27231552     29.26661301     -8.00000000     10.44033055      8.02100834
    102.27299440     29.26682126    -10.00000000     10.43846263     10.02246991
    102.29217740     29.22282063    -10.00000000      5.21919482     10.01701538
> -Z    1    11.757     1.000     0.000    11.726     0.851     0.000   184.149   102.260    29.288  -1.00   1   1   3   1    0.1048E+02   0.4927E+16   0.0000E+00    -4.977    10.652  2.2736e+10
    102.26960000     29.26578000     -0.00000000     10.44780218      0.01614669
    102.25040000     29.30982000     -0.00000000     15.67181296      0.01614669
    102.25108228     29.31002038     -2.00000000     15.66901108      2.01736093
    102.27027888     29.26598825     -2.00000000     10.44593429      2.01736075
> -Z    1    11.758     1.000     0.000    11.727     0.851     0.000   184.151   102.261    29.288  -3.00   1   1   3   2    0.1047E+02   0.4926E+16   0.0000E+00    -4.977    10.653  2.92567e+10
    102.27027888     29.26598825     -2.00000000     10.44593429      2.01736075
    102.25108228     29.31002038     -2.00000000     15.66901108      2.01736093
    102.25176456     29.31022076     -4.00000000     15.66620918      4.01857603
    102.27095776     29.26619651     -4.00000000     10.44406639      4.01857572
> -Z    1    11.759     1.000     0.000    11.728     0.852     0.000   184.153   102.262    29.288  -5.00   1   1   3   3    0.1047E+02   0.4926E+16   0.0000E+00    -4.978    10.653  3.30069e+10
    102.27095776     29.26619651     -4.00000000     10.44406639      4.01857572
    102.25176456     29.31022076     -4.00000000     15.66620918      4.01857603
    102.25244684     29.31042114     -6.00000000     15.66340727      6.01979201
    102.27163664     29.26640476     -6.00000000     10.44219848      6.01979158
> -Z    1    11.760     1.000     0.000    11.729     0.852     0.000   184.155   102.262    29.289  -7.00   1   1   3   4    0.1047E+02   0.4925E+16   0.0000E+00    -4.979    10.654  3.41359e+10
    102.27163664     29.26640476     -6.00000000     10.44219848      6.01979158
    102.25244684     29.31042114     -6.00000000     15.66340727      6.01979201
    102.25312912     29.31062152     -8.00000000     15.66060535      8.02100886
    102.27231552     29.26661301     -8.00000000     10.44033055      8.02100834
> -Z    1    11.761     1.000     0.000    11.730     0.853     0.000   184.157   102.263    29.289  -9.00   1   1   3   5    0.1047E+02   0.4925E+16   0.0000E+00    -4.980    10.655  3.43015e+10
    102.27231552     29.26661301     -8.00000000     10.44033055      8.02100834
    102.25312912     29.31062152     -8.00000000     15.66060535      8.02100886
    102.25381141     29.31082190    -10.00000000     15.65780344     10.02247048
    102.27299440     29.26682126    -10.00000000     10.43846263     10.02246991
> -Z    1    11.742     1.000     0.000    11.712     0.844     0.000   184.123   102.241    29.332  -1.00   1   1   4   1    0.1047E+02   0.4919E+16   0.0000E+00    -4.966    10.641  2.35226e+10
    102.25040000     29.30982000     -0.00000000     15.67181296      0.01614669
    102.23120000     29.35386000     -0.00000000     15.66060535      8.02100886
    102.23188568     29.35405251     -2.00000000     20.89216097      2.01198079
    102.25108228     29.31002038     -2.00000000     15.66901108      2.01736093
> -Z    1    11.743     1.000     0.000    11.713     0.845     0.000   184.125   102.242    29.332  -3.00   1   1   4   2    0.1047E+02   0.4918E+16   0.0000E+00    -4.966    10.642  2.99075e+10
    102.25108228     29.31002038     -2.00000000     15.66901108      2.01736093
    102.23188568     29.35405251     -2.00000000     20.89216097      2.01198079
    102.23257136     29.35424501     -4.00000000     20.88842505      4.01319795
    102.25176456     29.31022076     -4.00000000     15.66620918      4.01857603
> -Z    1    11.744     1.000     0.000    11.714     0.845     0.000   184.127   102.243    29.332  -5.00   1   1   4   3    0.1047E+02   0.4918E+16   0.0000E+00    -4.967    10.642  3.3446e+10
    102.25176456     29.31022076     -4.00000000     15.66620918      4.01857603
    102.23257136     29.35424501     -4.00000000     20.88842505      4.01319795
    102.23325705     29.35443752     -6.00000000     20.88468912      6.01441596
    102.25244684     29.31042114     -6.00000000     15.66340727      6.01979201
> -Z    1    11.745     1.000     0.000    11.715     0.846     0.000   184.129   102.243    29.333  -7.00   1   1   4   4    0.1047E+02   0.4917E+16   0.0000E+00    -4.968    10.643  3.44607e+10
    102.25244684     29.31042114     -6.00000000     15.66340727      6.01979201
    102.23325705     29.35443752     -6.00000000     20.88468912      6.01441596
    102.23394273     29.35463002     -8.00000000     20.88095318      8.01563480
    102.25312912     29.31062152     -8.00000000     15.66060535      8.02100886
> -Z    1    11.746     1.000     0.000    11.716     0.846     0.000   184.132   102.244    29.333  -9.00   1   1   4   5    0.1046E+02   0.4917E+16   0.0000E+00    -4.969    10.644  3.45995e+10
    102.25312912     29.31062152     -8.00000000     15.66060535      8.02100886
    102.23394273     29.35463002     -8.00000000     20.88095318      8.01563480
    102.23462841     29.35482253    -10.00000000     20.87721724     10.01701709
    102.25381141     29.31082190    -10.00000000     15.65780344     10.02247048
> -Z    1    11.728     1.000     0.000    11.698     0.838     0.000   184.098   102.222    29.376  -1.00   1   1   5   1    0.1047E+02   0.4910E+16   0.0000E+00    -4.955    10.630  2.46616e+10
    102.23120000     29.35386000     -0.00000000     15.66060535      8.02100886
    102.21200000     29.39790000     -0.00000000     20.88095318      8.01563480
    102.21268908     29.39808463     -2.00000000     26.11538396      2.00122033
    102.23188568     29.35405251     -2.00000000     20.89216097      2.01198079
> -Z    1    11.729     1.000     0.000    11.699     0.839     0.000   184.100   102.223    29.376  -3.00   1   1   5   2    0.1047E+02   0.4910E+16   0.0000E+00    -4.956    10.630  3.07761e+10
    102.23188568     29.35405251     -2.00000000     20.89216097      2.01198079
    102.21268908     29.39808463     -2.00000000     26.11538396      2.00122033
    102.21337817     29.39826926     -4.00000000     26.11071384      4.00247564
    102.23257136     29.35424501     -4.00000000     20.88842505      4.01319795
> -Z    1    11.730     1.000     0.000    11.700     0.839     0.000   184.102   102.223    29.376  -5.00   1   1   5   3    0.1046E+02   0.4909E+16   0.0000E+00    -4.956    10.631  3.39191e+10
    102.23257136     29.35424501     -4.00000000     20.88842505      4.01319795
    102.21337817     29.39826926     -4.00000000     26.11071384      4.00247564
    102.21406725     29.39845390     -6.00000000     26.10604386      6.00369759
    102.23325705     29.35443752     -6.00000000     20.88468912      6.01441596
> -Z    1    11.731     1.000     0.000    11.701     0.840     0.000   184.104   102.224    29.377  -7.00   1   1   5   4    0.1046E+02   0.4909E+16   0.0000E+00    -4.957    10.632  3.47165e+10
    102.23325705     29.35443752     -6.00000000     20.88468912      6.01441596
    102.21406725     29.39845390     -6.00000000     26.10604386      6.00369759
    102.21475633     29.39863853     -8.00000000     26.10137393      8.00490896
    102.23394273     29.35463002     -8.00000000     20.88095318      8.01563480
> -Z    1    11.732     1.000     0.000    11.702     0.840     0.000   184.106   102.225    29.377  -9.00   1   1   5   5    0.1046E+02   0.4908E+16   0.0000E+00    -4.958    10.633  3.47925e+10
    102.23394273     29.35463002     -8.00000000     20.88095318      8.01563480
    102.21475633     29.39863853     -8.00000000     26.10137393      8.00490896
    102.21544541     29.39882316    -10.00000000     26.09670404     10.00610974
    102.23462841     29.35482253    -10.00000000     20.87721724     10.01701709
> -Z    1    11.717     1.000     0.000    11.500     2.244     0.000   191.039   102.205    29.425  -1.00   2   1   1   1    0.1242E+02   0.5823E+16   0.0000E+00    -4.947    10.621  2.5752e+10
    102.21200000     29.39790000     -0.00000000     20.88095318      8.01563480
    102.19660000     29.45210000     -0.00000000     32.30903604     -0.13883857
    102.19729256     29.45227433     -2.00000000     32.30317656      1.86246124
    102.21268908     29.39808463     -2.00000000     26.11538396      2.00122033
> -Z    1    11.718     1.000     0.000    11.501     2.244     0.000   191.042   102.205    29.425  -3.00   2   1   1   2    0.1242E+02   0.5822E+16   0.0000E+00    -4.948    10.622  3.15979e+10
    102.21268908     29.39808463     -2.00000000     26.11538396      2.00122033
    102.19729256     29.45227433     -2.00000000     32.30317656      1.86246124
    102.19798511     29.45244866     -4.00000000     32.29731711      3.86375101
    102.21337817     29.39826926     -4.00000000     26.11071384      4.00247564
> -Z    1    11.719     1.000     0.000    11.502     2.245     0.000   191.044   102.206    29.425  -5.00   2   1   1   3    0.1242E+02   0.5821E+16   0.0000E+00    -4.949    10.623  3.43579e+10
    102.21337817     29.39826926     -4.00000000     26.11071384      4.00247564
    102.19798511     29.45244866     -4.00000000     32.29731711      3.86375101
    102.19867767     29.45262299     -6.00000000     32.29145770      5.86503073
    102.21406725     29.39845390     -6.00000000     26.10604386      6.00369759
> -Z    1    11.720     1.000     0.000    11.503     2.246     0.000   191.047   102.207    29.426  -7.00   2   1   1   4    0.1242E+02   0.5821E+16   0.0000E+00    -4.949    10.623  3.49354e+10
    102.21406725     29.39845390     -6.00000000     26.10604386      6.00369759
    102.19867767     29.45262299     -6.00000000     32.29145770      5.86503073
    102.19937022     29.45279733     -8.00000000     32.28559833      7.86630042
    102.21475633     29.39863853     -8.00000000     26.10137393      8.00490896
> -Z    1    11.721     1.000     0.000    11.504     2.246     0.000   191.050   102.207    29.426  -9.00   2   1   1   5    0.1241E+02   0.5820E+16   0.0000E+00    -4.950    10.624  3.4939e+10
    102.21475633     29.39863853     -8.00000000     26.10137393      8.00490896
    102.19937022     29.45279733     -8.00000000     32.28559833      7.86630042
    102.20006278     29.45297166    -10.00000000     32.27973958      9.86747785
    102.21544541     29.39882316    -10.00000000     26.09670404     10.00610974
> -Z    1    11.710     1.000     0.000    11.494     2.241     0.000   191.032   102.189    29.479  -1.00   2   1   2   1    0.1242E+02   0.5816E+16   0.0000E+00    -4.943    10.616  2.67889e+10
    102.19660000     29.45210000     -0.00000000     32.30903604     -0.13883857
    102.18120000     29.50630000     -0.00000000     38.49774352     -0.20825785
    102.18189603     29.50646403     -2.00000000     38.49069471      1.79306981
    102.19729256     29.45227433     -2.00000000     32.30317656      1.86246124
> -Z    1    11.711     1.000     0.000    11.494     2.241     0.000   191.034   102.190    29.479  -3.00   2   1   2   2    0.1241E+02   0.5816E+16   0.0000E+00    -4.943    10.616  3.23714e+10
    102.19729256     29.45227433     -2.00000000     32.30317656      1.86246124
    102.18189603     29.50646403     -2.00000000     38.49069471      1.79306981
    102.18259205     29.50662806     -4.00000000     38.48364595      3.79438798
    102.19798511     29.45244866     -4.00000000     32.29731711      3.86375101
> -Z    1    11.712     1.000     0.000    11.495     2.242     0.000   191.037   102.191    29.480  -5.00   2   1   2   3    0.1241E+02   0.5815E+16   0.0000E+00    -4.944    10.617  3.47625e+10
    102.19798511     29.45244866     -4.00000000     32.29731711      3.86375101
    102.18259205     29.50662806     -4.00000000     38.48364595      3.79438798
    102.18328808     29.50679209     -6.00000000     38.47659722      5.79569666
    102.19867767     29.45262299     -6.00000000     32.29145770      5.86503073
> -Z    1    11.713     1.000     0.000    11.496     2.243     0.000   191.039   102.191    29.480  -7.00   2   1   2   4    0.1241E+02   0.5814E+16   0.0000E+00    -4.945    10.618  3.51177e+10
    102.19867767     29.45262299     -6.00000000     32.29145770      5.86503073
    102.18328808     29.50679209     -6.00000000     38.47659722      5.79569666
    102.18398411     29.50695612     -8.00000000     38.46954853      7.79699584
    102.19937022     29.45279733     -8.00000000     32.28559833      7.86630042
> -Z    1    11.714     1.000     0.000    11.497     2.244     0.000   191.042   102.192    29.480  -9.00   2   1   2   5    0.1241E+02   0.5814E+16   0.0000E+00    -4.946    10.618  3.50399e+10
    102.19937022     29.45279733     -8.00000000     32.28559833      7.86630042
    102.18398411     29.50695612     -8.00000000     38.46954853      7.79699584
    102.18468014     29.50712015    -10.00000000     38.46250074      9.79816220
    102.20006278     29.45297166    -10.00000000     32.27973958      9.86747785
> -Z    1    11.703     1.000     0.000    11.487     2.238     0.000   191.024   102.174    29.533  -1.00   2   1   3   1    0.1241E+02   0.5810E+16   0.0000E+00    -4.938    10.610  2.73649e+10
    102.18120000     29.50630000     -0.00000000     38.49774352     -0.20825785
    102.16580000     29.56050000     -0.00000000     44.68617633     -0.20825785
    102.16649950     29.56065373     -2.00000000     44.67793833      1.79306883
    102.18189603     29.50646403     -2.00000000     38.49069471      1.79306981
> -Z    1    11.704     1.000     0.000    11.488     2.238     0.000   191.026   102.175    29.534  -3.00   2   1   3   2    0.1241E+02   0.5809E+16   0.0000E+00    -4.939    10.611  3.2683e+10
    102.18189603     29.50646403     -2.00000000     38.49069471      1.79306981
    102.16649950     29.56065373     -2.00000000     44.67793833      1.79306883
    102.16719900     29.56080746     -4.00000000     44.66970036      3.79438656
    102.18259205     29.50662806     -4.00000000     38.48364595      3.79438798
> -Z    1    11.705     1.000     0.000    11.489     2.239     0.000   191.029   102.175    29.534  -5.00   2   1   3   3    0.1241E+02   0.5808E+16   0.0000E+00    -4.940    10.611  3.48018e+10
    102.18259205     29.50662806     -4.00000000     38.48364595      3.79438798
    102.16719900     29.56080746     -4.00000000     44.66970036      3.79438656
    102.16789850     29.56096119     -6.00000000     44.66146243      5.79569535
    102.18328808     29.50679209     -6.00000000     38.47659722      5.79569666
> -Z    1    11.706     1.000     0.000    11.489     2.240     0.000   191.032   102.176    29.534  -7.00   2   1   3   4    0.1240E+02   0.5808E+16   0.0000E+00    -4.941    10.612  3.50466e+10
    102.18328808     29.50679209     -6.00000000     38.47659722      5.79569666
    102.16789850     29.56096119     -6.00000000     44.66146243      5.79569535
    102.16859800     29.56111492     -8.00000000     44.65322453      7.79699520
    102.18398411     29.50695612     -8.00000000     38.46954853      7.79699584
> -Z    1    11.707     1.000     0.000    11.490     2.241     0.000   191.034   102.177    29.534  -9.00   2   1   3   5    0.1240E+02   0.5807E+16   0.0000E+00    -4.941    10.613  3.50002e+10
    102.18398411     29.50695612     -8.00000000     38.46954853      7.79699584
    102.16859800     29.56111492     -8.00000000     44.65322453      7.79699520
    102.16929750     29.56126865    -10.00000000     44.64498753      9.79816279
    102.18468014     29.50712015    -10.00000000     38.46250074      9.79816220
> -Z    1    11.696     1.000     0.000    11.480     2.235     0.000   191.016   102.158    29.588  -1.00   2   1   4   1    0.1240E+02   0.5803E+16   0.0000E+00    -4.934    10.604  2.77636e+10
    102.16580000     29.56050000     -0.00000000     44.68617633     -0.20825785
    102.15040000     29.61470000     -0.00000000     44.65322453      7.79699520
    102.15110297     29.61484343     -2.00000000     50.86490739      1.86245828
    102.16649950     29.56065373     -2.00000000     44.67793833      1.79306883
> -Z    1    11.697     1.000     0.000    11.481     2.236     0.000   191.019   102.159    29.588  -3.00   2   1   4   2    0.1240E+02   0.5802E+16   0.0000E+00    -4.935    10.605  3.28465e+10
    102.16649950     29.56065373     -2.00000000     44.67793833      1.79306883
    102.15110297     29.61484343     -2.00000000     50.86490739      1.86245828
    102.15180594     29.61498686     -4.00000000     50.85548034      3.86374675
    102.16719900     29.56080746     -4.00000000     44.66970036      3.79438656
> -Z    1    11.698     1.000     0.000    11.482     2.236     0.000   191.021   102.160    29.588  -5.00   2   1   4   3    0.1240E+02   0.5802E+16   0.0000E+00    -4.935    10.606  3.4762e+10
    102.16719900     29.56080746     -4.00000000     44.66970036      3.79438656
    102.15180594     29.61498686     -4.00000000     50.85548034      3.86374675
    102.15250892     29.61513029     -6.00000000     50.84605332      5.86502683
    102.16789850     29.56096119     -6.00000000     44.66146243      5.79569535
> -Z    1    11.699     1.000     0.000    11.483     2.237     0.000   191.024   102.161    29.588  -7.00   2   1   4   4    0.1240E+02   0.5801E+16   0.0000E+00    -4.936    10.606  3.4959e+10
    102.16789850     29.56096119     -6.00000000     44.66146243      5.79569535
    102.15250892     29.61513029     -6.00000000     50.84605332      5.86502683
    102.15321189     29.61527372     -8.00000000     50.83662633      7.86629852
    102.16859800     29.56111492     -8.00000000     44.65322453      7.79699520
> -Z    1    11.700     1.000     0.000    11.484     2.238     0.000   191.026   102.161    29.588  -9.00   2   1   4   5    0.1239E+02   0.5800E+16   0.0000E+00    -4.937    10.607  3.49863e+10
    102.16859800     29.56111492     -8.00000000     44.65322453      7.79699520
    102.15321189     29.61527372     -8.00000000     50.83662633      7.86629852
    102.15391486     29.61541715    -10.00000000     50.82719937      9.86756183
    102.16929750     29.56126865    -10.00000000     44.64498753      9.79816279
> -Z    1    11.689     1.000     0.000    11.474     2.232     0.000   191.008   102.143    29.642  -1.00   2   1   5   1    0.1240E+02   0.5796E+16   0.0000E+00    -4.929    10.598  2.82421e+10
    102.15040000     29.61470000     -0.00000000     44.65322453      7.79699520
    102.13500000     29.66890000     -0.00000000     50.83662633      7.86629852
    102.13570644     29.66903313     -2.00000000     57.05160192      2.00123818
    102.15110297     29.61484343     -2.00000000     50.86490739      1.86245828
> -Z    1    11.690     1.000     0.000    11.474     2.233     0.000   191.011   102.144    29.642  -3.00   2   1   5   2    0.1239E+02   0.5796E+16   0.0000E+00    -4.930    10.599  3.31163e+10
    102.15110297     29.61484343     -2.00000000     50.86490739      1.86245828
    102.13570644     29.66903313     -2.00000000     57.05160192      2.00123818
    102.13641289     29.66916626     -4.00000000     57.04098587      4.00246376
    102.15180594     29.61498686     -4.00000000     50.85548034      3.86374675
> -Z    1    11.691     1.000     0.000    11.475     2.233     0.000   191.013   102.144    29.642  -5.00   2   1   5   3    0.1239E+02   0.5795E+16   0.0000E+00    -4.931    10.600  3.48433e+10
    102.15180594     29.61498686     -4.00000000     50.85548034      3.86374675
    102.13641289     29.66916626     -4.00000000     57.04098587      4.00246376
    102.13711933     29.66929939     -6.00000000     57.03036987      6.00368630
    102.15250892     29.61513029     -6.00000000     50.84605332      5.86502683
> -Z    1    11.692     1.000     0.000    11.476     2.234     0.000   191.016   102.145    29.642  -7.00   2   1   5   4    0.1239E+02   0.5794E+16   0.0000E+00    -4.932    10.601  3.49859e+10
    102.15250892     29.61513029     -6.00000000     50.84605332      5.86502683
    102.13711933     29.66929939     -6.00000000     57.03036987      6.00368630
    102.13782578     29.66943252     -8.00000000     57.01975392      8.00490580
    102.15321189     29.61527372     -8.00000000     50.83662633      7.86629852
> -Z    1    11.693     1.000     0.000    11.477     2.235     0.000   191.019   102.146    29.642  -9.00   2   1   5   5    0.1239E+02   0.5794E+16   0.0000E+00    -4.933    10.601  3.50536e+10
    102.15321189     29.61527372     -8.00000000     50.83662633      7.86629852
    102.13782578     29.66943252     -8.00000000     57.01975392      8.00490580
    102.13853222     29.66956565    -10.00000000     57.00913799     10.00611269
    102.15391486     29.61541715    -10.00000000     50.82719937      9.86756183
> -Z    1    11.742     1.000     0.000    11.358     2.975     0.000   194.676   102.130    29.696  -1.00   3   1   1   1    0.1227E+02   0.5764E+16   0.0000E+00    -5.005    10.621  2.87637e+10
    102.13500000     29.66890000     -0.00000000     50.83662633      7.86629852
    102.12340000     29.72312000     -0.00000000     63.17477926     -0.08331762
    102.12410767     29.72324951     -2.00000000     63.16374750      1.91793145
    102.13570644     29.66903313     -2.00000000     57.05160192      2.00123818
> -Z    1    11.858     1.000     0.000    11.441     3.119     0.000   195.250   102.130    29.696  -3.00   3   1   1   2    0.1227E+02   0.5820E+16   0.0000E+00    -5.162    10.676  3.34736e+10
    102.13570644     29.66903313     -2.00000000     57.05160192      2.00123818
    102.12410767     29.72324951     -2.00000000     63.16374750      1.91793145
    102.12481534     29.72337903     -4.00000000     63.15271579      3.91917445
    102.13641289     29.66916626     -4.00000000     57.04098587      4.00246376
> -Z    1    11.976     1.000     0.000    11.523     3.263     0.000   195.812   102.131    29.696  -5.00   3   1   1   3    0.1227E+02   0.5878E+16   0.0000E+00    -5.319    10.730  3.50429e+10
    102.13641289     29.66916626     -4.00000000     57.04098587      4.00246376
    102.12481534     29.72337903     -4.00000000     63.15271579      3.91917445
    102.12552300     29.72350854     -6.00000000     63.14168411      5.92041137
    102.13711933     29.66929939     -6.00000000     57.03036987      6.00368630
> -Z    1    12.095     1.000     0.000    11.605     3.408     0.000   196.364   102.132    29.696  -7.00   3   1   1   4    0.1227E+02   0.5936E+16   0.0000E+00    -5.475    10.785  3.51347e+10
    102.13711933     29.66929939     -6.00000000     57.03036987      6.00368630
    102.12552300     29.72350854     -6.00000000     63.14168411      5.92041137
    102.12623067     29.72363806     -8.00000000     63.13065247      7.92164223
    102.13782578     29.66943252     -8.00000000     57.01975392      8.00490580
> -Z    1    12.215     1.000     0.000    11.687     3.552     0.000   196.904   102.132    29.697  -9.00   3   1   1   5    0.1227E+02   0.5994E+16   0.0000E+00    -5.632    10.839  3.52192e+10
    102.13782578     29.66943252     -8.00000000     57.01975392      8.00490580
    102.12623067     29.72363806     -8.00000000     63.13065247      7.92164223
    102.12693834     29.72376757    -10.00000000     63.11962094      9.92287282
    102.13853222     29.66956565    -10.00000000     57.00913799     10.00611269
> -Z    1    11.855     1.000     0.000    11.438     3.118     0.000   195.251   102.118    29.750  -1.00   3   1   2   1    0.1227E+02   0.5816E+16   0.0000E+00    -5.161    10.673  2.93176e+10
    102.12340000     29.72312000     -0.00000000     63.17477926     -0.08331762
    102.11180000     29.77734000     -0.00000000     69.28708184     -0.12497642
    102.11250889     29.77746590     -2.00000000     69.27563446      1.87627954
    102.12410767     29.72324951     -2.00000000     63.16374750      1.91793145
> -Z    1    12.210     1.000     0.000    11.683     3.550     0.000   196.901   102.119    29.750  -3.00   3   1   2   2    0.1226E+02   0.5990E+16   0.0000E+00    -5.630    10.835  3.39042e+10
    102.12410767     29.72324951     -2.00000000     63.16374750      1.91793145
    102.11250889     29.77746590     -2.00000000     69.27563446      1.87627954
    102.11321779     29.77759180     -4.00000000     69.26418711      3.87752959
    102.12481534     29.72337903     -4.00000000     63.15271579      3.91917445
> -Z    1    12.575     1.000     0.000    11.928     3.981     0.000   198.457   102.119    29.751  -5.00   3   1   2   3    0.1226E+02   0.6168E+16   0.0000E+00    -6.098    10.997  3.53437e+10
    102.12481534     29.72337903     -4.00000000     63.15271579      3.91917445
    102.11321779     29.77759180     -4.00000000     69.26418711      3.87752959
    102.11392668     29.77771770     -6.00000000     69.25273980      5.87877373
    102.12552300     29.72350854     -6.00000000     63.14168411      5.92041137
> -Z    1    12.948     1.000     0.000    12.173     4.412     0.000   199.924   102.120    29.751  -7.00   3   1   2   4    0.1226E+02   0.6351E+16   0.0000E+00    -6.567    11.159  3.53886e+10
    102.12552300     29.72350854     -6.00000000     63.14168411      5.92041137
    102.11392668     29.77771770     -6.00000000     69.25273980      5.87877373
    102.11463557     29.77784360     -8.00000000     69.24129253      7.88001196
    102.12623067     29.72363806     -8.00000000     63.13065247      7.92164223
> -Z    1    13.329     1.000     0.000    12.418     4.844     0.000   201.308   102.121    29.751  -9.00   3   1   2   5    0.1226E+02   0.6537E+16   0.0000E+00    -7.036    11.321  3.54697e+10
    102.12623067     29.72363806     -8.00000000     63.13065247      7.92164223
    102.11463557     29.77784360     -8.00000000     69.24129253      7.88001196
    102.11534446     29.77796950    -10.00000000     69.22984540      9.88125300
    102.12693834     29.72376757    -10.00000000     63.11962094      9.92287282
> -Z    1    11.970     1.000     0.000    11.517     3.262     0.000   195.814   102.106    29.805  -1.00   3   1   3   1    0.1226E+02   0.5869E+16   0.0000E+00    -5.316    10.725  3.0385e+10
    102.11180000     29.77734000     -0.00000000     69.28708184     -0.12497642
    102.10020000     29.83156000     -0.00000000     75.39912574     -0.12497642
    102.10091012     29.83168228     -2.00000000     75.38726277      1.87627926
    102.11250889     29.77746590     -2.00000000     69.27563446      1.87627954
> -Z    1    12.572     1.000     0.000    11.925     3.980     0.000   198.458   102.107    29.805  -3.00   3   1   3   2    0.1226E+02   0.6164E+16   0.0000E+00    -6.097    10.994  3.48923e+10
    102.11250889     29.77746590     -2.00000000     69.27563446      1.87627954
    102.10091012     29.83168228     -2.00000000     75.38726277      1.87627926
    102.10162023     29.83180457     -4.00000000     75.37539983      3.87752920
    102.11321779     29.77759180     -4.00000000     69.26418711      3.87752959
> -Z    1    13.197     1.000     0.000    12.333     4.699     0.000   200.856   102.108    29.805  -5.00   3   1   3   3    0.1226E+02   0.6470E+16   0.0000E+00    -6.878    11.263  3.6135e+10
    102.11321779     29.77759180     -4.00000000     69.26418711      3.87752959
    102.10162023     29.83180457     -4.00000000     75.37539983      3.87752920
    102.10233035     29.83192685     -6.00000000     75.36353693      5.87877338
    102.11392668     29.77771770     -6.00000000     69.25273980      5.87877373
> -Z    1    13.844     1.000     0.000    12.740     5.417     0.000   203.034   102.108    29.805  -7.00   3   1   3   4    0.1226E+02   0.6787E+16   0.0000E+00    -7.659    11.533  3.59779e+10
    102.11392668     29.77771770     -6.00000000     69.25273980      5.87877373
    102.10233035     29.83192685     -6.00000000     75.36353693      5.87877338
    102.10304047     29.83204914     -8.00000000     75.35167407      7.88001181
    102.11463557     29.77784360     -8.00000000     69.24129253      7.88001196
> -Z    1    14.509     1.000     0.000    13.148     6.135     0.000   205.015   102.109    29.805  -9.00   3   1   3   5    0.1226E+02   0.7112E+16   0.0000E+00    -8.440    11.802  3.58453e+10
    102.11463557     29.77784360     -8.00000000     69.24129253      7.88001196
    102.10304047     29.83204914     -8.00000000     75.35167407      7.88001181
    102.10375058     29.83217142    -10.00000000     75.33981135      9.88125321
    102.11534446     29.77796950    -10.00000000     69.22984540      9.88125300
> -Z    1    12.086     1.000     0.000    11.596     3.406     0.000   196.367   102.095    29.859  -1.00   3   1   4   1    0.1225E+02   0.5923E+16   0.0000E+00    -5.472    10.776  3.14885e+10
    102.10020000     29.83156000     -0.00000000     75.39912574     -0.12497642
    102.08860000     29.88578000     -0.00000000     81.51091095     -0.08331762
    102.08931134     29.88589867     -2.00000000     81.49863243      1.91793062
    102.10091012     29.83168228     -2.00000000     75.38726277      1.87627926
> -Z    1    12.942     1.000     0.000    12.167     4.411     0.000   199.928   102.095    29.859  -3.00   3   1   4   2    0.1225E+02   0.6342E+16   0.0000E+00    -6.565    11.153  3.5942e+10
    102.10091012     29.83168228     -2.00000000     75.38726277      1.87627926
    102.08931134     29.88589867     -2.00000000     81.49863243      1.91793062
    102.09002268     29.88601734     -4.00000000     81.48635395      3.91917326
    102.10162023     29.83180457     -4.00000000     75.37539983      3.87752920
> -Z    1    13.841     1.000     0.000    12.737     5.416     0.000   203.036   102.096    29.859  -5.00   3   1   4   3    0.1225E+02   0.6782E+16   0.0000E+00    -7.658    11.530  3.70026e+10
    102.10162023     29.83180457     -4.00000000     75.37539983      3.87752920
    102.09002268     29.88601734     -4.00000000     81.48635395      3.91917326
    102.09073402     29.88613601     -6.00000000     81.47407551      5.92041031
    102.10233035     29.83192685     -6.00000000     75.36353693      5.87877338
> -Z    1    14.776     1.000     0.000    13.308     6.422     0.000   205.759   102.097    29.859  -7.00   3   1   4   4    0.1225E+02   0.7240E+16   0.0000E+00    -8.750    11.907  3.66493e+10
    102.10233035     29.83192685     -6.00000000     75.36353693      5.87877338
    102.09073402     29.88613601     -6.00000000     81.47407551      5.92041031
    102.09144536     29.88625468     -8.00000000     81.46179710      7.92164178
    102.10304047     29.83204914     -8.00000000     75.35167407      7.88001181
> -Z    1    15.741     1.000     0.000    13.879     7.427     0.000   208.153   102.098    29.859  -9.00   3   1   4   5    0.1225E+02   0.7712E+16   0.0000E+00    -9.843    12.284  3.63059e+10
    102.10304047     29.83204914     -8.00000000     75.35167407      7.88001181
    102.09144536     29.88625468     -8.00000000     81.46179710      7.92164178
    102.09215671     29.88637335    -10.00000000     81.44951872      9.92286765
    102.10375058     29.83217142    -10.00000000     75.33981135      9.88125321
> -Z    1    12.203     1.000     0.000    11.676     3.549     0.000   196.909   102.083    29.913  -1.00   3   1   5   1    0.1225E+02   0.5977E+16   0.0000E+00    -5.628    10.828  3.26294e+10
    102.08860000     29.88578000     -0.00000000     81.51091095     -0.08331762
    102.07700000     29.94000000     -0.00000000     81.46179710      7.92164178
    102.07771257     29.94011506     -2.00000000     81.44951872      9.92286765
    102.08931134     29.88589867     -2.00000000     81.49863243      1.91793062
> -Z    1    13.320     1.000     0.000    12.409     4.842     0.000   201.314   102.084    29.913  -3.00   3   1   5   2    0.1224E+02   0.6524E+16   0.0000E+00    -7.033    11.312  3.7056e+10
    102.08931134     29.88589867     -2.00000000     81.49863243      1.91793062
    102.07771257     29.94011506     -2.00000000     81.46179710      7.92164178
    102.07842513     29.94023011     -4.00000000     81.44951872      9.92286765
    102.09002268     29.88601734     -4.00000000     81.48635395      3.91917326
> -Z    1    14.503     1.000     0.000    13.142     6.134     0.000   205.020   102.085    29.913  -5.00   3   1   5   3    0.1224E+02   0.7103E+16   0.0000E+00    -8.437    11.797  3.79491e+10
    102.09002268     29.88601734     -4.00000000     81.48635395      3.91917326
    102.07842513     29.94023011     -4.00000000     81.46179710      7.92164178
    102.07913770     29.94034517     -6.00000000     81.44951872      9.92286765
    102.09073402     29.88613601     -6.00000000     81.47407551      5.92041031
> -Z    1    15.738     1.000     0.000    13.876     7.426     0.000   208.156   102.085    29.913  -7.00   3   1   5   4    0.1224E+02   0.7707E+16   0.0000E+00    -9.842    12.281  3.74055e+10
    102.09073402     29.88613601     -6.00000000     81.47407551      5.92041031
    102.07913770     29.94034517     -6.00000000     81.46179710      7.92164178
    102.07985026     29.94046022     -8.00000000     81.44951872      9.92286765
    102.09144536     29.88625468     -8.00000000     81.46179710      7.92164178
> -Z    1    17.013     1.000     0.000    14.609     8.719     0.000   210.829   102.086    29.913  -9.00   3   1   5   5    0.1224E+02   0.8331E+16   0.0000E+00   -11.247    12.765  3.68532e+10
    102.09144536     29.88625468     -8.00000000     81.46179710      7.92164178
    102.07985026     29.94046022     -8.00000000     81.46179710      7.92164178
    102.08056283     29.94057528    -10.00000000     87.55896774     10.00611375
    102.09215671     29.88637335    -10.00000000     81.44951872      9.92286765
> -Z    1    10.730     0.910     0.000    11.759     0.866     0.000   184.210   102.302    29.201 -11.00   1   2   1   1    0.1048E+02   0.4496E+16   0.0000E+00    -5.002    10.677  3.49008e+10
    102.31136039     29.17882000    -10.00000000     -0.00000000     10.00610689
    102.29217740     29.22282063    -10.00000000      5.21919482     10.01701538
    102.29285288     29.22303676    -12.00000000      5.21826062     12.01823110
    102.31203248     29.17904400    -12.00000000      0.00000003     12.00732632
> -Z    1     8.608     0.730     0.000    11.760     0.866     0.000   184.212   102.303    29.201 -13.00   1   2   1   2    0.1047E+02   0.3606E+16   0.0000E+00    -5.003    10.678  3.46693e+10
    102.31203248     29.17904400    -12.00000000      0.00000003     12.00732632
    102.29285288     29.22303676    -12.00000000      5.21826062     12.01823110
    102.29352837     29.22325288    -14.00000000      5.21732641     14.01944777
    102.31270456     29.17926800    -14.00000000      0.00000003     12.00732632
> -Z    1     6.486     0.550     0.000    11.761     0.867     0.000   184.214   102.303    29.201 -15.00   1   2   1   3    0.1047E+02   0.2717E+16   0.0000E+00    -5.004    10.679  3.47401e+10
    102.31270456     29.17926800    -14.00000000      0.00000003     12.00732632
    102.29352837     29.22325288    -14.00000000      5.21732641     14.01944777
    102.29420386     29.22346900    -16.00000000      5.21639219     16.02066537
    102.31337665     29.17949200    -16.00000000      0.00000003     12.00732632
> -Z    1     4.364     0.370     0.000    11.762     0.867     0.000   184.216   102.304    29.202 -17.00   1   2   1   4    0.1047E+02   0.1828E+16   0.0000E+00    -5.005    10.679  3.56618e+10
    102.31337665     29.17949200    -16.00000000      0.00000003     12.00732632
    102.29420386     29.22346900    -16.00000000      5.21639219     16.02066537
    102.29487935     29.22368513    -18.00000000      5.21545796     18.02188392
    102.31404874     29.17971600    -18.00000000      0.00000003     12.00732632
> -Z    1     2.241     0.190     0.000    11.763     0.867     0.000   184.218   102.305    29.202 -19.00   1   2   1   5    0.1047E+02   0.9384E+15   0.0000E+00    -5.005    10.680  3.6829e+10
    102.31404874     29.17971600    -18.00000000      0.00000003     12.00732632
    102.29487935     29.22368513    -18.00000000      5.21545796     18.02188392
    102.29555483     29.22390125    -20.00000000      5.21545796     18.02188392
    102.31472082     29.17994000    -20.00000000      0.00000000     20.01221378
> -Z    1    10.952     0.930     0.000    11.745     0.859     0.000   184.184   102.283    29.245 -11.00   1   2   2   1    0.1047E+02   0.4587E+16   0.0000E+00    -4.991    10.666  3.43509e+10
    102.29217740     29.22282063    -10.00000000      5.21919482     10.01701538
    102.27299440     29.26682126    -10.00000000     10.43846263     10.02246991
    102.27367329     29.26702951    -12.00000000     10.43659419     12.02368387
    102.29285288     29.22303676    -12.00000000      5.21826062     12.01823110
> -Z    1     9.304     0.790     0.000    11.746     0.860     0.000   184.186   102.284    29.245 -13.00   1   2   2   2    0.1047E+02   0.3896E+16   0.0000E+00    -4.992    10.667  3.4312e+10
    102.29285288     29.22303676    -12.00000000      5.21826062     12.01823110
    102.27367329     29.26702951    -12.00000000     10.43659419     12.02368387
    102.27435218     29.26723776    -14.00000000     10.43472573     14.02489873
    102.29352837     29.22325288    -14.00000000      5.21732641     14.01944777
> -Z    1     7.656     0.650     0.000    11.747     0.860     0.000   184.188   102.284    29.245 -15.00   1   2   2   3    0.1047E+02   0.3206E+16   0.0000E+00    -4.993    10.668  3.45202e+10
    102.29352837     29.22325288    -14.00000000      5.21732641     14.01944777
    102.27435218     29.26723776    -14.00000000     10.43472573     14.02489873
    102.27503107     29.26744601    -16.00000000     10.43285726     16.02611451
    102.29420386     29.22346900    -16.00000000      5.21639219     16.02066537
> -Z    1     6.007     0.510     0.000    11.748     0.861     0.000   184.191   102.285    29.246 -17.00   1   2   2   4    0.1047E+02   0.2515E+16   0.0000E+00    -4.994    10.668  3.5565e+10
    102.29420386     29.22346900    -16.00000000      5.21639219     16.02066537
    102.27503107     29.26744601    -16.00000000     10.43285726     16.02611451
    102.27570996     29.26765425    -18.00000000     10.43098878     18.02733120
    102.29487935     29.22368513    -18.00000000      5.21545796     18.02188392
> -Z    1     4.359     0.370     0.000    11.749     0.861     0.000   184.193   102.286    29.246 -19.00   1   2   2   5    0.1046E+02   0.1824E+16   0.0000E+00    -4.995    10.669  3.6866e+10
    102.29487935     29.22368513    -18.00000000      5.21545796     18.02188392
    102.27570996     29.26765425    -18.00000000     10.43098878     18.02733120
    102.27638885     29.26786250    -20.00000000     10.43098878     18.02733120
    102.29555483     29.22390125    -20.00000000      5.21545796     18.02188392
> -Z    1    11.174     0.950     0.000    11.731     0.853     0.000   184.159   102.264    29.289 -11.00   1   2   3   1    0.1047E+02   0.4678E+16   0.0000E+00    -4.981    10.655  3.45096e+10
    102.27299440     29.26682126    -10.00000000     10.43846263     10.02246991
    102.25381141     29.31082190    -10.00000000     15.65780344     10.02247048
    102.25449370     29.31102227    -12.00000000     15.65500072     12.02368461
    102.27367329     29.26702951    -12.00000000     10.43659419     12.02368387
> -Z    1     9.998     0.850     0.000    11.732     0.854     0.000   184.161   102.264    29.289 -13.00   1   2   3   2    0.1046E+02   0.4185E+16   0.0000E+00    -4.981    10.656  3.44576e+10
    102.27367329     29.26702951    -12.00000000     10.43659419     12.02368387
    102.25449370     29.31102227    -12.00000000     15.65500072     12.02368461
    102.25517599     29.31122264    -14.00000000     15.65219799     14.02489962
    102.27435218     29.26723776    -14.00000000     10.43472573     14.02489873
> -Z    1     8.823     0.750     0.000    11.733     0.854     0.000   184.163   102.265    29.289 -15.00   1   2   3   3    0.1046E+02   0.3693E+16   0.0000E+00    -4.982    10.657  3.46612e+10
    102.27435218     29.26723776    -14.00000000     10.43472573     14.02489873
    102.25517599     29.31122264    -14.00000000     15.65219799     14.02489962
    102.25585828     29.31142301    -16.00000000     15.64939524     16.02611551
    102.27503107     29.26744601    -16.00000000     10.43285726     16.02611451
> -Z    1     7.647     0.650     0.000    11.734     0.855     0.000   184.165   102.266    29.290 -17.00   1   2   3   4    0.1046E+02   0.3200E+16   0.0000E+00    -4.983    10.657  3.57007e+10
    102.27503107     29.26744601    -16.00000000     10.43285726     16.02611451
    102.25585828     29.31142301    -16.00000000     15.64939524     16.02611551
    102.25654057     29.31162338    -18.00000000     15.64659249     18.02733229
    102.27570996     29.26765425    -18.00000000     10.43098878     18.02733120
> -Z    1     6.471     0.550     0.000    11.735     0.855     0.000   184.167   102.266    29.290 -19.00   1   2   3   5    0.1046E+02   0.2707E+16   0.0000E+00    -4.984    10.658  3.69567e+10
    102.27570996     29.26765425    -18.00000000     10.43098878     18.02733120
    102.25654057     29.31162338    -18.00000000     15.64659249     18.02733229
    102.25722286     29.31182375    -20.00000000     15.64659249     18.02733229
    102.27638885     29.26786250    -20.00000000     10.43098878     18.02733120
> -Z    1    11.395     0.970     0.000    11.717     0.847     0.000   184.134   102.245    29.333 -11.00   1   2   4   1    0.1046E+02   0.4769E+16   0.0000E+00    -4.970    10.644  3.47868e+10
    102.25381141     29.31082190    -10.00000000     15.65780344     10.02247048
    102.23462841     29.35482253    -10.00000000     20.87721724     10.01701709
    102.23531410     29.35501502    -12.00000000     20.87348022     12.01823334
    102.25449370     29.31102227    -12.00000000     15.65500072     12.02368461
> -Z    1    10.691     0.910     0.000    11.718     0.847     0.000   184.136   102.245    29.333 -13.00   1   2   4   2    0.1046E+02   0.4473E+16   0.0000E+00    -4.970    10.645  3.46896e+10
    102.25449370     29.31102227    -12.00000000     15.65500072     12.02368461
    102.23531410     29.35501502    -12.00000000     20.87348022     12.01823334
    102.23599979     29.35520752    -14.00000000     20.86974319     14.01945043
    102.25517599     29.31122264    -14.00000000     15.65219799     14.02489962
> -Z    1     9.987     0.850     0.000    11.719     0.848     0.000   184.138   102.246    29.333 -15.00   1   2   4   3    0.1046E+02   0.4178E+16   0.0000E+00    -4.971    10.646  3.48683e+10
    102.25517599     29.31122264    -14.00000000     15.65219799     14.02489962
    102.23599979     29.35520752    -14.00000000     20.86974319     14.01945043
    102.23668549     29.35540001    -16.00000000     20.86600614     16.02066838
    102.25585828     29.31142301    -16.00000000     15.64939524     16.02611551
> -Z    1     9.283     0.790     0.000    11.719     0.848     0.000   184.140   102.247    29.334 -17.00   1   2   4   4    0.1046E+02   0.3883E+16   0.0000E+00    -4.972    10.646  3.5874e+10
    102.25585828     29.31142301    -16.00000000     15.64939524     16.02611551
    102.23668549     29.35540001    -16.00000000     20.86600614     16.02066838
    102.23737118     29.35559251    -18.00000000     20.86226909     18.02188719
    102.25654057     29.31162338    -18.00000000     15.64659249     18.02733229
> -Z    1     8.578     0.730     0.000    11.720     0.849     0.000   184.142   102.247    29.334 -19.00   1   2   4   5    0.1045E+02   0.3587E+16   0.0000E+00    -4.973    10.647  3.70565e+10
    102.25654057     29.31162338    -18.00000000     15.64659249     18.02733229
    102.23737118     29.35559251    -18.00000000     20.86226909     18.02188719
    102.23805687     29.35578500    -20.00000000     20.86226909     18.02188719
    102.25722286     29.31182375    -20.00000000     15.64659249     18.02733229
> -Z    1    11.615     0.990     0.000    11.702     0.841     0.000   184.108   102.225    29.377 -11.00   1   2   5   1    0.1046E+02   0.4859E+16   0.0000E+00    -4.959    10.633  3.4931e+10
    102.23462841     29.35482253    -10.00000000     20.87721724     10.01701709
    102.21544541     29.39882316    -10.00000000     26.09670404     10.00610974
    102.21613451     29.39900778    -12.00000000     26.09203269     12.00733005
    102.23531410     29.35501502    -12.00000000     20.87348022     12.01823334
> -Z    1    11.382     0.970     0.000    11.703     0.841     0.000   184.110   102.226    29.377 -13.00   1   2   5   2    0.1046E+02   0.4760E+16   0.0000E+00    -4.960    10.634  3.48152e+10
    102.23531410     29.35501502    -12.00000000     20.87348022     12.01823334
    102.21613451     29.39900778    -12.00000000     26.09203269     12.00733005
    102.21682360     29.39919240    -14.00000000     26.08736117     14.00858540
    102.23599979     29.35520752    -14.00000000     20.86974319     14.01945043
> -Z    1    11.148     0.950     0.000    11.704     0.842     0.000   184.112   102.227    29.377 -15.00   1   2   5   3    0.1045E+02   0.4662E+16   0.0000E+00    -4.960    10.635  3.49971e+10
    102.23599979     29.35520752    -14.00000000     20.86974319     14.01945043
    102.21682360     29.39919240    -14.00000000     26.08736117     14.00858540
    102.21751269     29.39937702    -16.00000000     26.08268996     16.00977312
    102.23668549     29.35540001    -16.00000000     20.86600614     16.02066838
> -Z    1    10.914     0.930     0.000    11.705     0.842     0.000   184.115   102.227    29.377 -17.00   1   2   5   4    0.1045E+02   0.4563E+16   0.0000E+00    -4.961    10.635  3.59317e+10
    102.23668549     29.35540001    -16.00000000     20.86600614     16.02066838
    102.21751269     29.39937702    -16.00000000     26.08268996     16.00977312
    102.21820179     29.39956164    -18.00000000     26.07801858     18.01099589
    102.23737118     29.35559251    -18.00000000     20.86226909     18.02188719
> -Z    1    10.680     0.910     0.000    11.706     0.843     0.000   184.117   102.228    29.378 -19.00   1   2   5   5    0.1045E+02   0.4464E+16   0.0000E+00    -4.962    10.636  3.6989e+10
    102.23737118     29.35559251    -18.00000000     20.86226909     18.02188719
    102.21820179     29.39956164    -18.00000000     26.07801858     18.01099589
    102.21889088     29.39974626    -20.00000000     26.07334718     20.01221949
    102.23805687     29.35578500    -20.00000000     20.86226909     18.02188719
> -Z    1    11.605     0.990     0.000    11.504     2.247     0.000   191.052   102.208    29.426 -11.00   2   2   1   1    0.1241E+02   0.5761E+16   0.0000E+00    -4.951    10.625  3.50486e+10
    102.21544541     29.39882316    -10.00000000     26.09670404     10.00610974
    102.20006278     29.45297166    -10.00000000     32.27973958      9.86747785
    102.20075534     29.45314597    -12.00000000     32.27387832     11.86877766
    102.21613451     29.39900778    -12.00000000     26.09203269     12.00733005
> -Z    1    11.371     0.970     0.000    11.505     2.248     0.000   191.055   102.209    29.426 -13.00   2   2   1   2    0.1241E+02   0.5644E+16   0.0000E+00    -4.952    10.626  3.49507e+10
    102.21613451     29.39900778    -12.00000000     26.09203269     12.00733005
    102.20075534     29.45314597    -12.00000000     32.27387832     11.86877766
    102.20144791     29.45332029    -14.00000000     32.26801711     13.87006742
    102.21682360     29.39919240    -14.00000000     26.08736117     14.00858540
> -Z    1    11.138     0.950     0.000    11.506     2.249     0.000   191.057   102.209    29.426 -15.00   2   2   1   3    0.1241E+02   0.5527E+16   0.0000E+00    -4.953    10.626  3.51619e+10
    102.21682360     29.39919240    -14.00000000     26.08736117     14.00858540
    102.20144791     29.45332029    -14.00000000     32.26801711     13.87006742
    102.20214047     29.45349460    -16.00000000     32.26215593     15.87134713
    102.21751269     29.39937702    -16.00000000     26.08268996     16.00977312
> -Z    1    10.904     0.930     0.000    11.507     2.249     0.000   191.060   102.210    29.427 -17.00   2   2   1   4    0.1240E+02   0.5410E+16   0.0000E+00    -4.953    10.627  3.60346e+10
    102.21751269     29.39937702    -16.00000000     26.08268996     16.00977312
    102.20214047     29.45349460    -16.00000000     32.26215593     15.87134713
    102.20283304     29.45366892    -18.00000000     32.25629480     17.87261679
    102.21820179     29.39956164    -18.00000000     26.07801858     18.01099589
> -Z    1    10.670     0.910     0.000    11.508     2.250     0.000   191.063   102.211    29.427 -19.00   2   2   1   5    0.1240E+02   0.5293E+16   0.0000E+00    -4.954    10.628  3.69677e+10
    102.21820179     29.39956164    -18.00000000     26.07801858     18.01099589
    102.20283304     29.45366892    -18.00000000     32.25629480     17.87261679
    102.20352561     29.45384323    -20.00000000     32.25629480     17.87261679
    102.21889088     29.39974626    -20.00000000     26.07334718     20.01221949
> -Z    1    11.363     0.970     0.000    11.498     2.244     0.000   191.045   102.193    29.480 -11.00   2   2   2   1    0.1241E+02   0.5639E+16   0.0000E+00    -4.947    10.619  3.51401e+10
    102.20006278     29.45297166    -10.00000000     32.27973958      9.86747785
    102.18468014     29.50712015    -10.00000000     38.46250074      9.79816220
    102.18537617     29.50728417    -12.00000000     38.45544980     11.79948985
    102.20075534     29.45314597    -12.00000000     32.27387832     11.86877766
> -Z    1    10.661     0.910     0.000    11.499     2.245     0.000   191.047   102.193    29.480 -13.00   2   2   2   2    0.1240E+02   0.5289E+16   0.0000E+00    -4.947    10.620  3.50965e+10
    102.20075534     29.45314597    -12.00000000     32.27387832     11.86877766
    102.18537617     29.50728417    -12.00000000     38.45544980     11.79948985
    102.18607221     29.50744818    -14.00000000     38.44839890     13.80080801
    102.20144791     29.45332029    -14.00000000     32.26801711     13.87006742
> -Z    1     9.959     0.850     0.000    11.499     2.246     0.000   191.050   102.194    29.480 -15.00   2   2   2   3    0.1240E+02   0.4940E+16   0.0000E+00    -4.948    10.620  3.53632e+10
    102.20144791     29.45332029    -14.00000000     32.26801711     13.87006742
    102.18607221     29.50744818    -14.00000000     38.44839890     13.80080801
    102.18676825     29.50761219    -16.00000000     38.44134803     15.80211666
    102.20214047     29.45349460    -16.00000000     32.26215593     15.87134713
> -Z    1     9.257     0.790     0.000    11.500     2.246     0.000   191.052   102.195    29.481 -17.00   2   2   2   4    0.1240E+02   0.4591E+16   0.0000E+00    -4.949    10.621  3.61832e+10
    102.20214047     29.45349460    -16.00000000     32.26215593     15.87134713
    102.18676825     29.50761219    -16.00000000     38.44134803     15.80211666
    102.18746429     29.50777620    -18.00000000     38.43429720     17.80341581
    102.20283304     29.45366892    -18.00000000     32.25629480     17.87261679
> -Z    1     8.555     0.730     0.000    11.501     2.247     0.000   191.055   102.195    29.481 -19.00   2   2   2   5    0.1240E+02   0.4242E+16   0.0000E+00    -4.950    10.622  3.69928e+10
    102.20283304     29.45366892    -18.00000000     32.25629480     17.87261679
    102.18746429     29.50777620    -18.00000000     38.43429720     17.80341581
    102.18816033     29.50794021    -20.00000000     38.43429720     17.80341581
    102.20352561     29.45384323    -20.00000000     32.25629480     17.87261679
> -Z    1    11.122     0.950     0.000    11.491     2.241     0.000   191.037   102.177    29.534 -11.00   2   2   3   1    0.1240E+02   0.5516E+16   0.0000E+00    -4.942    10.613  3.51545e+10
    102.18468014     29.50712015    -10.00000000     38.46250074      9.79816220
    102.16929750     29.56126865    -10.00000000     44.64498753      9.79816279
    102.16999701     29.56142236    -12.00000000     44.63674702     11.79948946
    102.18537617     29.50728417    -12.00000000     38.45544980     11.79948985
> -Z    1     9.952     0.850     0.000    11.492     2.242     0.000   191.039   102.178    29.534 -13.00   2   2   3   2    0.1240E+02   0.4935E+16   0.0000E+00    -4.943    10.614  3.51868e+10
    102.18537617     29.50728417    -12.00000000     38.45544980     11.79948985
    102.16999701     29.56142236    -12.00000000     44.63674702     11.79948946
    102.17069652     29.56157607    -14.00000000     44.62850654     13.80080717
    102.18607221     29.50744818    -14.00000000     38.44839890     13.80080801
> -Z    1     8.782     0.750     0.000    11.493     2.243     0.000   191.042   102.179    29.535 -15.00   2   2   3   3    0.1239E+02   0.4354E+16   0.0000E+00    -4.944    10.615  3.55074e+10
    102.18607221     29.50744818    -14.00000000     38.44839890     13.80080801
    102.17069652     29.56157607    -14.00000000     44.62850654     13.80080717
    102.17139603     29.56172977    -16.00000000     44.62026610     15.80211595
    102.18676825     29.50761219    -16.00000000     38.44134803     15.80211666
> -Z    1     7.612     0.650     0.000    11.494     2.243     0.000   191.045   102.179    29.535 -17.00   2   2   3   4    0.1239E+02   0.3773E+16   0.0000E+00    -4.945    10.615  3.63059e+10
    102.18676825     29.50761219    -16.00000000     38.44134803     15.80211666
    102.17139603     29.56172977    -16.00000000     44.62026610     15.80211595
    102.17209554     29.56188348    -18.00000000     44.61202569     17.80341577
    102.18746429     29.50777620    -18.00000000     38.43429720     17.80341581
> -Z    1     6.441     0.550     0.000    11.495     2.244     0.000   191.047   102.180    29.535 -19.00   2   2   3   5    0.1239E+02   0.3192E+16   0.0000E+00    -4.945    10.616  3.70468e+10
    102.18746429     29.50777620    -18.00000000     38.43429720     17.80341581
    102.17209554     29.56188348    -18.00000000     44.61202569     17.80341577
    102.17279505     29.56203719    -20.00000000     44.61202569     17.80341577
    102.18816033     29.50794021    -20.00000000     38.43429720     17.80341581
> -Z    1    10.882     0.930     0.000    11.484     2.238     0.000   191.029   102.162    29.588 -11.00   2   2   4   1    0.1239E+02   0.5394E+16   0.0000E+00    -4.938    10.608  3.5202e+10
    102.16929750     29.56126865    -10.00000000     44.64498753      9.79816279
    102.15391486     29.61541715    -10.00000000     50.82719937      9.86756183
    102.15461784     29.61556055    -12.00000000     50.81776998     11.86877646
    102.16999701     29.56142236    -12.00000000     44.63674702     11.79948946
> -Z    1     9.244     0.790     0.000    11.485     2.239     0.000   191.032   102.163    29.589 -13.00   2   2   4   2    0.1239E+02   0.4581E+16   0.0000E+00    -4.939    10.608  3.52998e+10
    102.16999701     29.56142236    -12.00000000     44.63674702     11.79948946
    102.15461784     29.61556055    -12.00000000     50.81776998     11.86877646
    102.15532083     29.61570396    -14.00000000     50.80834004     13.87006492
    102.17069652     29.56157607    -14.00000000     44.62850654     13.80080717
> -Z    1     7.607     0.650     0.000    11.486     2.240     0.000   191.034   102.163    29.589 -15.00   2   2   4   3    0.1239E+02   0.3769E+16   0.0000E+00    -4.939    10.609  3.56627e+10
    102.17069652     29.56157607    -14.00000000     44.62850654     13.80080717
    102.15532083     29.61570396    -14.00000000     50.80834004     13.87006492
    102.15602381     29.61584736    -16.00000000     50.79891014     15.87134499
    102.17139603     29.56172977    -16.00000000     44.62026610     15.80211595
> -Z    1     5.969     0.510     0.000    11.487     2.241     0.000   191.037   102.164    29.589 -17.00   2   2   4   4    0.1238E+02   0.2957E+16   0.0000E+00    -4.940    10.610  3.64599e+10
    102.17139603     29.56172977    -16.00000000     44.62026610     15.80211595
    102.15602381     29.61584736    -16.00000000     50.79891014     15.87134499
    102.15672679     29.61599076    -18.00000000     50.78948027     17.87261666
    102.17209554     29.56188348    -18.00000000     44.61202569     17.80341577
> -Z    1     4.331     0.370     0.000    11.488     2.241     0.000   191.039   102.165    29.589 -19.00   2   2   4   5    0.1238E+02   0.2145E+16   0.0000E+00    -4.941    10.610  3.71664e+10
    102.17209554     29.56188348    -18.00000000     44.61202569     17.80341577
    102.15672679     29.61599076    -18.00000000     50.78948027     17.87261666
    102.15742978     29.61613417    -20.00000000     50.78005043     19.87387995
    102.17279505     29.56203719    -20.00000000     44.61202569     17.80341577
> -Z    1    10.641     0.910     0.000    11.478     2.235     0.000   191.021   102.147    29.643 -11.00   2   2   5   1    0.1239E+02   0.5272E+16   0.0000E+00    -4.933    10.602  3.53033e+10
    102.15391486     29.61541715    -10.00000000     50.82719937      9.86756183
    102.13853222     29.66956565    -10.00000000     57.00913799     10.00611269
    102.13923868     29.66969875    -12.00000000     56.99851867     12.00735088
    102.15461784     29.61556055    -12.00000000     50.81776998     11.86877646
> -Z    1     8.537     0.730     0.000    11.479     2.236     0.000   191.024   102.147    29.643 -13.00   2   2   5   2    0.1238E+02   0.4229E+16   0.0000E+00    -4.934    10.603  3.54553e+10
    102.15461784     29.61556055    -12.00000000     50.81776998     11.86877646
    102.13923868     29.66969875    -12.00000000     56.99851867     12.00735088
    102.13994513     29.66983185    -14.00000000     56.98789937     14.00857645
    102.15532083     29.61570396    -14.00000000     50.80834004     13.87006492
> -Z    1     6.433     0.550     0.000    11.480     2.237     0.000   191.026   102.148    29.643 -15.00   2   2   5   3    0.1238E+02   0.3186E+16   0.0000E+00    -4.935    10.603  3.58599e+10
    102.15532083     29.61570396    -14.00000000     50.80834004     13.87006492
    102.13994513     29.66983185    -14.00000000     56.98789937     14.00857645
    102.14065159     29.66996495    -16.00000000     56.97728012     16.00979899
    102.15602381     29.61584736    -16.00000000     50.79891014     15.87134499
> -Z    1     4.328     0.370     0.000    11.480     2.238     0.000   191.029   102.149    29.643 -17.00   2   2   5   4    0.1238E+02   0.2143E+16   0.0000E+00    -4.936    10.604  3.66636e+10
    102.15602381     29.61584736    -16.00000000     50.79891014     15.87134499
    102.14065159     29.66996495    -16.00000000     56.97728012     16.00979899
    102.14135804     29.67009805    -18.00000000     56.96666090     18.01101530
    102.15672679     29.61599076    -18.00000000     50.78948027     17.87261666
> -Z    1     2.223     0.190     0.000    11.481     2.238     0.000   191.032   102.149    29.643 -19.00   2   2   5   5    0.1238E+02   0.1100E+16   0.0000E+00    -4.937    10.605  3.73419e+10
    102.15672679     29.61599076    -18.00000000     50.78948027     17.87261666
    102.14135804     29.67009805    -18.00000000     56.96666090     18.01101530
    102.14206450     29.67023115    -20.00000000     56.95604173     20.01222538
    102.15742978     29.61613417    -20.00000000     50.78005043     19.87387995
> -Z    1    11.048     0.900     0.000    11.729     3.624     0.000   197.172   102.133    29.697 -11.00   3   2   1   1    0.1227E+02   0.5421E+16   0.0000E+00    -5.711    10.867  3.54815e+10
    102.13853222     29.66956565    -10.00000000     57.00913799     10.00611269
    102.12693834     29.72376757    -10.00000000     63.11962094      9.92287282
    102.12764602     29.72389706    -12.00000000     63.10858611     11.92412187
    102.13923868     29.66969875    -12.00000000     56.99851867     12.00735088
> -Z    1     8.594     0.700     0.000    11.730     3.625     0.000   197.174   102.134    29.697 -13.00   3   2   1   2    0.1227E+02   0.4217E+16   0.0000E+00    -5.712    10.867  3.56749e+10
    102.13923868     29.66969875    -12.00000000     56.99851867     12.00735088
    102.12764602     29.72389706    -12.00000000     63.10858611     11.92412187
    102.12835370     29.72402655    -14.00000000     63.09755132     13.92536486
    102.13994513     29.66983185    -14.00000000     56.98789937     14.00857645
> -Z    1     6.139     0.500     0.000    11.730     3.626     0.000   197.176   102.135    29.697 -15.00   3   2   1   3    0.1227E+02   0.3012E+16   0.0000E+00    -5.713    10.868  3.61158e+10
    102.13994513     29.66983185    -14.00000000     56.98789937     14.00857645
    102.12835370     29.72402655    -14.00000000     63.09755132     13.92536486
    102.12906138     29.72415603    -16.00000000     63.08651657     15.92660177
    102.14065159     29.66996495    -16.00000000     56.97728012     16.00979899
> -Z    1     3.684     0.300     0.000    11.731     3.627     0.000   197.178   102.135    29.697 -17.00   3   2   1   4    0.1226E+02   0.1807E+16   0.0000E+00    -5.713    10.869  3.69337e+10
    102.14065159     29.66996495    -16.00000000     56.97728012     16.00979899
    102.12906138     29.72415603    -16.00000000     63.08651657     15.92660177
    102.12976906     29.72428552    -18.00000000     63.07548185     17.92783261
    102.14135804     29.67009805    -18.00000000     56.96666090     18.01101530
> -Z    1     1.228     0.100     0.000    11.732     3.627     0.000   197.180   102.136    29.697 -19.00   3   2   1   5    0.1226E+02   0.6024E+15   0.0000E+00    -5.714    10.870  3.75932e+10
    102.14135804     29.67009805    -18.00000000     56.96666090     18.01101530
    102.12976906     29.72428552    -18.00000000     63.07548185     17.92783261
    102.13047674     29.72441500    -20.00000000     63.06444717     19.92905739
    102.14206450     29.67023115    -20.00000000     56.95604173     20.01222538
> -Z    1    12.171     0.900     0.000    12.541     5.060     0.000   201.972   102.121    29.751 -11.00   3   2   2   1    0.1226E+02   0.5969E+16   0.0000E+00    -7.271    11.402  3.57251e+10
    102.12693834     29.72376757    -10.00000000     63.11962094      9.92287282
    102.11534446     29.77796950    -10.00000000     69.22984540      9.88125300
    102.11605337     29.77809537    -12.00000000     69.21839511     11.88250894
    102.12764602     29.72389706    -12.00000000     63.10858611     11.92412187
> -Z    1     9.467     0.700     0.000    12.542     5.060     0.000   201.973   102.122    29.751 -13.00   3   2   2   2    0.1226E+02   0.4643E+16   0.0000E+00    -7.272    11.403  3.5948e+10
    102.12764602     29.72389706    -12.00000000     63.10858611     11.92412187
    102.11605337     29.77809537    -12.00000000     69.21839511     11.88250894
    102.11676227     29.77822124    -14.00000000     69.20694486     13.88375897
    102.12835370     29.72402655    -14.00000000     63.09755132     13.92536486
> -Z    1     6.763     0.500     0.000    12.542     5.061     0.000   201.975   102.123    29.751 -15.00   3   2   2   3    0.1226E+02   0.3316E+16   0.0000E+00    -7.272    11.404  3.64203e+10
    102.12835370     29.72402655    -14.00000000     63.09755132     13.92536486
    102.11676227     29.77822124    -14.00000000     69.20694486     13.88375897
    102.11747117     29.77834712    -16.00000000     69.19549465     15.88500309
    102.12906138     29.72415603    -16.00000000     63.08651657     15.92660177
> -Z    1     4.058     0.300     0.000    12.543     5.062     0.000   201.976   102.124    29.751 -17.00   3   2   2   4    0.1226E+02   0.1990E+16   0.0000E+00    -7.273    11.404  3.72563e+10
    102.12906138     29.72415603    -16.00000000     63.08651657     15.92660177
    102.11747117     29.77834712    -16.00000000     69.19549465     15.88500309
    102.11818008     29.77847299    -18.00000000     69.18404448     17.88624130
    102.12976906     29.72428552    -18.00000000     63.07548185     17.92783261
> -Z    1     1.353     0.100     0.000    12.544     5.063     0.000   201.978   102.124    29.751 -19.00   3   2   2   5    0.1226E+02   0.6632E+15   0.0000E+00    -7.274    11.405  3.79029e+10
    102.12976906     29.72428552    -18.00000000     63.07548185     17.92783261
    102.11818008     29.77847299    -18.00000000     69.18404448     17.88624130
    102.11888898     29.77859886    -20.00000000     69.18404448     17.88624130
    102.13047674     29.72441500    -20.00000000     63.06444717     19.92905739
> -Z    1    13.364     0.900     0.000    13.353     6.495     0.000   205.939   102.110    29.805 -11.00   3   2   3   1    0.1225E+02   0.6550E+16   0.0000E+00    -8.830    11.937  3.59066e+10
    102.11534446     29.77796950    -10.00000000     69.22984540      9.88125300
    102.10375058     29.83217142    -10.00000000     75.33981135      9.88125321
    102.10446071     29.83229368    -12.00000000     75.32794565     11.88250887
    102.11605337     29.77809537    -12.00000000     69.21839511     11.88250894
> -Z    1    10.395     0.700     0.000    13.353     6.496     0.000   205.940   102.111    29.805 -13.00   3   2   3   2    0.1225E+02   0.5095E+16   0.0000E+00    -8.831    11.938  3.6091e+10
    102.11605337     29.77809537    -12.00000000     69.21839511     11.88250894
    102.10446071     29.83229368    -12.00000000     75.32794565     11.88250887
    102.10517084     29.83241594    -14.00000000     75.31607999     13.88375878
    102.11676227     29.77822124    -14.00000000     69.20694486     13.88375897
> -Z    1     7.425     0.500     0.000    13.354     6.496     0.000   205.941   102.111    29.805 -15.00   3   2   3   3    0.1225E+02   0.3639E+16   0.0000E+00    -8.832    11.939  3.6608e+10
    102.11676227     29.77822124    -14.00000000     69.20694486     13.88375897
    102.10517084     29.83241594    -14.00000000     75.31607999     13.88375878
    102.10588097     29.83253820    -16.00000000     75.30421436     15.88500295
    102.11747117     29.77834712    -16.00000000     69.19549465     15.88500309
> -Z    1     4.456     0.300     0.000    13.355     6.497     0.000   205.942   102.112    29.806 -17.00   3   2   3   4    0.1225E+02   0.2184E+16   0.0000E+00    -8.833    11.940  3.73844e+10
    102.11747117     29.77834712    -16.00000000     69.19549465     15.88500309
    102.10588097     29.83253820    -16.00000000     75.30421436     15.88500295
    102.10659109     29.83266046    -18.00000000     75.29234877     17.88624136
    102.11818008     29.77847299    -18.00000000     69.18404448     17.88624130
> -Z    1     1.485     0.100     0.000    13.356     6.498     0.000   205.943   102.113    29.806 -19.00   3   2   3   5    0.1225E+02   0.7279E+15   0.0000E+00    -8.834    11.941  3.79397e+10
    102.11818008     29.77847299    -18.00000000     69.18404448     17.88624130
    102.10659109     29.83266046    -18.00000000     75.29234877     17.88624136
    102.10730122     29.83278272    -20.00000000     75.29234877     17.88624136
    102.11888898     29.77859886    -20.00000000     69.18404448     17.88624130
> -Z    1    14.610     0.900     0.000    14.164     7.930     0.000   209.243   102.098    29.859 -11.00   3   2   4   1    0.1225E+02   0.7157E+16   0.0000E+00   -10.390    12.473  3.61643e+10
    102.10375058     29.83217142    -10.00000000     75.33981135      9.88125321
    102.09215671     29.88637335    -10.00000000     81.44951872      9.92286765
    102.09286806     29.88649200    -12.00000000     81.43723773     11.92412168
    102.10446071     29.83229368    -12.00000000     75.32794565     11.88250887
> -Z    1    11.364     0.700     0.000    14.165     7.931     0.000   209.243   102.099    29.859 -13.00   3   2   4   2    0.1225E+02   0.5567E+16   0.0000E+00   -10.391    12.473  3.6291e+10
    102.10446071     29.83229368    -12.00000000     75.32794565     11.88250887
    102.09286806     29.88649200    -12.00000000     81.43723773     11.92412168
    102.09357941     29.88661064    -14.00000000     81.42495670     13.92536431
    102.10517084     29.83241594    -14.00000000     75.31607999     13.88375878
> -Z    1     8.118     0.500     0.000    14.166     7.932     0.000   209.244   102.100    29.860 -15.00   3   2   4   3    0.1225E+02   0.3976E+16   0.0000E+00   -10.392    12.474  3.68303e+10
    102.10517084     29.83241594    -14.00000000     75.31607999     13.88375878
    102.09357941     29.88661064    -14.00000000     81.42495670     13.92536431
    102.09429076     29.88672929    -16.00000000     81.41267571     15.92660134
    102.10588097     29.83253820    -16.00000000     75.30421436     15.88500295
> -Z    1     4.871     0.300     0.000    14.167     7.932     0.000   209.244   102.100    29.860 -17.00   3   2   4   4    0.1225E+02   0.2386E+16   0.0000E+00   -10.393    12.475  3.75329e+10
    102.10588097     29.83253820    -16.00000000     75.30421436     15.88500295
    102.09429076     29.88672929    -16.00000000     81.41267571     15.92660134
    102.09500211     29.88684793    -18.00000000     81.40039475     17.92783279
    102.10659109     29.83266046    -18.00000000     75.29234877     17.88624136
> -Z    1     1.624     0.100     0.000    14.168     7.933     0.000   209.245   102.101    29.860 -19.00   3   2   4   5    0.1224E+02   0.7953E+15   0.0000E+00   -10.393    12.476  3.79978e+10
    102.10659109     29.83266046    -18.00000000     75.29234877     17.88624136
    102.09500211     29.88684793    -18.00000000     81.40039475     17.92783279
    102.09571346     29.88696658    -20.00000000     81.40039475     17.92783279
    102.10730122     29.83278272    -20.00000000     75.29234877     17.88624136
> -Z    1    15.897     0.900     0.000    14.976     9.365     0.000   212.020   102.087    29.914 -11.00   3   2   5   1    0.1224E+02   0.7784E+16   0.0000E+00   -11.950    13.008  3.64989e+10
    102.09215671     29.88637335    -10.00000000     81.44951872      9.92286765
    102.08056283     29.94057528    -10.00000000     87.55896774     10.00611375
    102.08127540     29.94069031    -12.00000000     81.40039475     17.92783279
    102.09286806     29.88649200    -12.00000000     81.43723773     11.92412168
> -Z    1    12.365     0.700     0.000    14.977     9.366     0.000   212.020   102.087    29.914 -13.00   3   2   5   2    0.1224E+02   0.6054E+16   0.0000E+00   -11.951    13.009  3.65484e+10
    102.09286806     29.88649200    -12.00000000     81.43723773     11.92412168
    102.08127540     29.94069031    -12.00000000     87.55896774     10.00611375
    102.08198798     29.94080534    -14.00000000     81.40039475     17.92783279
    102.09357941     29.88661064    -14.00000000     81.42495670     13.92536431
> -Z    1     8.833     0.500     0.000    14.978     9.367     0.000   212.020   102.088    29.914 -15.00   3   2   5   3    0.1224E+02   0.4324E+16   0.0000E+00   -11.951    13.010  3.70872e+10
    102.09357941     29.88661064    -14.00000000     81.42495670     13.92536431
    102.08198798     29.94080534    -14.00000000     87.55896774     10.00611375
    102.08270055     29.94092037    -16.00000000     81.40039475     17.92783279
    102.09429076     29.88672929    -16.00000000     81.41267571     15.92660134
> -Z    1     5.300     0.300     0.000    14.979     9.368     0.000   212.020   102.089    29.914 -17.00   3   2   5   4    0.1224E+02   0.2595E+16   0.0000E+00   -11.952    13.011  3.77017e+10
    102.09429076     29.88672929    -16.00000000     81.41267571     15.92660134
    102.08270055     29.94092037    -16.00000000     87.55896774     10.00611375
    102.08341312     29.94103541    -18.00000000     81.40039475     17.92783279
    102.09500211     29.88684793    -18.00000000     81.40039475     17.92783279
> -Z    1     1.767     0.100     0.000    14.980     9.368     0.000   212.021   102.090    29.914 -19.00   3   2   5   5    0.1224E+02   0.8649E+15   0.0000E+00   -11.953    13.012  3.8077e+10
    102.09500211     29.88684793    -18.00000000     81.40039475     17.92783279
    102.08341312     29.94103541    -18.00000000     87.55896774     10.00611375
    102.08412570     29.94115044    -20.00000000     81.40039475     17.92783279
    102.09571346     29.88696658    -20.00000000     81.40039475     17.92783279
