> -Z    1     0.000     1.000     0.000     0.000    -0.000     0.000   180.000   102.299    29.200  -1.00   1   1   1   1    0.1049E+02   0.0000E+00   0.0000E+00     0.000     0.000
    102.30800000     29.17770000     -0.00000000      0.00000000      0.00000000
    102.28880000     29.22174000     -0.00000000      5.22386452      0.01076446
    102.28947548     29.22195613     -2.00000000      5.22293061      2.01198027
    102.30867208     29.17792400     -2.00000000      0.00000000      0.00000000
> -Z    1     0.000     1.000     0.000     0.000    -0.000     0.000   180.000   102.299    29.200  -3.00   1   1   1   2    0.1048E+02   0.0000E+00   0.0000E+00     0.000     0.000
    102.30867208     29.17792400     -2.00000000      0.00000000      0.00000000
    102.28947548     29.22195613     -2.00000000      5.22293061      2.01198027
    102.29015096     29.22217225     -4.00000000      5.22199668      4.01319700
    102.30934416     29.17814800     -4.00000000      0.00000004      4.00243988
> -Z    1     0.000     1.000     0.000     0.000    -0.000     0.000   180.000   102.300    29.200  -5.00   1   1   1   3    0.1048E+02   0.0000E+00   0.0000E+00     0.000     0.000
    102.30934416     29.17814800     -4.00000000      0.00000004      4.00243988
    102.29015096     29.22217225     -4.00000000      5.22199668      4.01319700
    102.29082644     29.22238838     -6.00000000      5.22106273      6.01441466
    102.31001624     29.17837200     -6.00000000      0.00000004      4.00243988
> -Z    1     0.000     1.000     0.000     0.000    -0.000     0.000   180.000   102.301    29.200  -7.00   1   1   1   4    0.1048E+02   0.0000E+00   0.0000E+00     0.000     0.000
    102.31001624     29.17837200     -6.00000000      0.00000004      4.00243988
    102.29082644     29.22238838     -6.00000000      5.22106273      6.01441466
    102.29150192     29.22260451     -8.00000000      5.22012878      8.01563325
    102.31068831     29.17859600     -8.00000000      0.00000003      8.00488359
> -Z    1     0.000     1.000     0.000     0.000    -0.000     0.000   180.000   102.301    29.201  -9.00   1   1   1   5    0.1048E+02   0.0000E+00   0.0000E+00     0.000     0.000
    102.31068831     29.17859600     -8.00000000      0.00000003      8.00488359
    102.29150192     29.22260451     -8.00000000      5.22012878      8.01563325
    102.29217740     29.22282063    -10.00000000      5.21919482     10.01701538
    102.31136039     29.17882000    -10.00000000     -0.00000000     10.00610689
> -Z    1     0.000     1.000     0.000     0.000    -0.000     0.000   180.000   102.280    29.244  -1.00   1   1   2   1    0.1048E+02   0.0000E+00   0.0000E+00     0.000     0.000
    102.28880000     29.22174000     -0.00000000      5.22386452      0.01076446
    102.26960000     29.26578000     -0.00000000     10.44780218      0.01614669
    102.27027888     29.26598825     -2.00000000     10.44593429      2.01736075
    102.28947548     29.22195613     -2.00000000      5.22293061      2.01198027
> -Z    1     0.000     1.000     0.000     0.000    -0.000     0.000   180.000   102.280    29.244  -3.00   1   1   2   2    0.1048E+02   0.0000E+00   0.0000E+00     0.000     0.000
    102.28947548     29.22195613     -2.00000000      5.22293061      2.01198027
    102.27027888     29.26598825     -2.00000000     10.44593429      2.01736075
    102.27095776     29.26619651     -4.00000000     10.44406639      4.01857572
    102.29015096     29.22217225     -4.00000000      5.22199668      4.01319700
> -Z    1     0.000     1.000     0.000     0.000    -0.000     0.000   180.000   102.281    29.244  -5.00   1   1   2   3    0.1048E+02   0.0000E+00   0.0000E+00     0.000     0.000
    102.29015096     29.22217225     -4.00000000      5.22199668      4.01319700
    102.27095776     29.26619651     -4.00000000     10.44406639      4.01857572
    102.27163664     29.26640476     -6.00000000     10.44219848      6.01979158
    102.29082644     29.22238838     -6.00000000      5.22106273      6.01441466
> -Z    1     0.000     1.000     0.000     0.000    -0.000     0.000   180.000   102.282    29.245  -7.00   1   1   2   4    0.1047E+02   0.0000E+00   0.0000E+00     0.000     0.000
    102.29082644     29.22238838     -6.00000000      5.22106273      6.01441466
    102.27163664     29.26640476     -6.00000000     10.44219848      6.01979158
    102.27231552     29.26661301     -8.00000000     10.44033055      8.02100834
    102.29150192     29.22260451     -8.00000000      5.22012878      8.01563325
> -Z    1     0.000     1.000     0.000     0.000    -0.000     0.000   180.000   102.282    29.245  -9.00   1   1   2   5    0.1047E+02   0.0000E+00   0.0000E+00     0.000     0.000
    102.29150192     29.22260451     -8.00000000      5.22012878      8.01563325
    102.27231552     29.26661301     -8.00000000     10.44033055      8.02100834
    102.27299440     29.26682126    -10.00000000     10.43846263     10.02246991
    102.29217740     29.22282063    -10.00000000      5.21919482     10.01701538
> -Z    1     0.000     1.000     0.000     0.000    -0.000     0.000   180.000   102.260    29.288  -1.00   1   1   3   1    0.1048E+02   0.0000E+00   0.0000E+00     0.000     0.000
    102.26960000     29.26578000     -0.00000000     10.44780218      0.01614669
    102.25040000     29.30982000     -0.00000000     15.67181296      0.01614669
    102.25108228     29.31002038     -2.00000000     15.66901108      2.01736093
    102.27027888     29.26598825     -2.00000000     10.44593429      2.01736075
> -Z    1     0.000     1.000     0.000     0.000    -0.000     0.000   180.000   102.261    29.288  -3.00   1   1   3   2    0.1047E+02   0.0000E+00   0.0000E+00     0.000     0.000
    102.27027888     29.26598825     -2.00000000     10.44593429      2.01736075
    102.25108228     29.31002038     -2.00000000     15.66901108      2.01736093
    102.25176456     29.31022076     -4.00000000     15.66620918      4.01857603
    102.27095776     29.26619651     -4.00000000     10.44406639      4.01857572
> -Z    1     0.000     1.000     0.000     0.000    -0.000     0.000   180.000   102.262    29.288  -5.00   1   1   3   3    0.1047E+02   0.0000E+00   0.0000E+00     0.000     0.000
    102.27095776     29.26619651     -4.00000000     10.44406639      4.01857572
    102.25176456     29.31022076     -4.00000000     15.66620918      4.01857603
    102.25244684     29.31042114     -6.00000000     15.66340727      6.01979201
    102.27163664     29.26640476     -6.00000000     10.44219848      6.01979158
> -Z    1     0.000     1.000     0.000     0.000    -0.000     0.000   180.000   102.262    29.289  -7.00   1   1   3   4    0.1047E+02   0.0000E+00   0.0000E+00     0.000     0.000
    102.27163664     29.26640476     -6.00000000     10.44219848      6.01979158
    102.25244684     29.31042114     -6.00000000     15.66340727      6.01979201
    102.25312912     29.31062152     -8.00000000     15.66060535      8.02100886
    102.27231552     29.26661301     -8.00000000     10.44033055      8.02100834
> -Z    1     0.000     1.000     0.000     0.000    -0.000     0.000   180.000   102.263    29.289  -9.00   1   1   3   5    0.1047E+02   0.0000E+00   0.0000E+00     0.000     0.000
    102.27231552     29.26661301     -8.00000000     10.44033055      8.02100834
    102.25312912     29.31062152     -8.00000000     15.66060535      8.02100886
    102.25381141     29.31082190    -10.00000000     15.65780344     10.02247048
    102.27299440     29.26682126    -10.00000000     10.43846263     10.02246991
> -Z    1     0.000     1.000     0.000     0.000    -0.000     0.000   180.000   102.241    29.332  -1.00   1   1   4   1    0.1047E+02   0.0000E+00   0.0000E+00     0.000     0.000
    102.25040000     29.30982000     -0.00000000     15.67181296      0.01614669
    102.23120000     29.35386000     -0.00000000     15.66060535      8.02100886
    102.23188568     29.35405251     -2.00000000     20.89216097      2.01198079
    102.25108228     29.31002038     -2.00000000     15.66901108      2.01736093
> -Z    1     0.000     1.000     0.000     0.000    -0.000     0.000   180.000   102.242    29.332  -3.00   1   1   4   2    0.1047E+02   0.0000E+00   0.0000E+00     0.000     0.000
    102.25108228     29.31002038     -2.00000000     15.66901108      2.01736093
    102.23188568     29.35405251     -2.00000000     20.89216097      2.01198079
    102.23257136     29.35424501     -4.00000000     20.88842505      4.01319795
    102.25176456     29.31022076     -4.00000000     15.66620918      4.01857603
> -Z    1     0.000     1.000     0.000     0.000    -0.000     0.000   180.000   102.243    29.332  -5.00   1   1   4   3    0.1047E+02   0.0000E+00   0.0000E+00     0.000     0.000
    102.25176456     29.31022076     -4.00000000     15.66620918      4.01857603
    102.23257136     29.35424501     -4.00000000     20.88842505      4.01319795
    102.23325705     29.35443752     -6.00000000     20.88468912      6.01441596
    102.25244684     29.31042114     -6.00000000     15.66340727      6.01979201
> -Z    1     0.000     1.000     0.000     0.000    -0.000     0.000   180.000   102.243    29.333  -7.00   1   1   4   4    0.1047E+02   0.0000E+00   0.0000E+00     0.000     0.000
    102.25244684     29.31042114     -6.00000000     15.66340727      6.01979201
    102.23325705     29.35443752     -6.00000000     20.88468912      6.01441596
    102.23394273     29.35463002     -8.00000000     20.88095318      8.01563480
    102.25312912     29.31062152     -8.00000000     15.66060535      8.02100886
> -Z    1     0.000     1.000     0.000     0.000    -0.000     0.000   180.000   102.244    29.333  -9.00   1   1   4   5    0.1046E+02   0.0000E+00   0.0000E+00     0.000     0.000
    102.25312912     29.31062152     -8.00000000     15.66060535      8.02100886
    102.23394273     29.35463002     -8.00000000     20.88095318      8.01563480
    102.23462841     29.35482253    -10.00000000     20.87721724     10.01701709
    102.25381141     29.31082190    -10.00000000     15.65780344     10.02247048
> -Z    1     0.000     1.000     0.000     0.000    -0.000     0.000   180.000   102.222    29.376  -1.00   1   1   5   1    0.1047E+02   0.0000E+00   0.0000E+00     0.000     0.000
    102.23120000     29.35386000     -0.00000000     15.66060535      8.02100886
    102.21200000     29.39790000     -0.00000000     20.88095318      8.01563480
    102.21268908     29.39808463     -2.00000000     26.11538396      2.00122033
    102.23188568     29.35405251     -2.00000000     20.89216097      2.01198079
> -Z    1     0.000     1.000     0.000     0.000    -0.000     0.000   180.000   102.223    29.376  -3.00   1   1   5   2    0.1047E+02   0.0000E+00   0.0000E+00     0.000     0.000
    102.23188568     29.35405251     -2.00000000     20.89216097      2.01198079
    102.21268908     29.39808463     -2.00000000     26.11538396      2.00122033
    102.21337817     29.39826926     -4.00000000     26.11071384      4.00247564
    102.23257136     29.35424501     -4.00000000     20.88842505      4.01319795
> -Z    1     0.000     1.000     0.000     0.000    -0.000     0.000   180.000   102.223    29.376  -5.00   1   1   5   3    0.1046E+02   0.0000E+00   0.0000E+00     0.000     0.000
    102.23257136     29.35424501     -4.00000000     20.88842505      4.01319795
    102.21337817     29.39826926     -4.00000000     26.11071384      4.00247564
    102.21406725     29.39845390     -6.00000000     26.10604386      6.00369759
    102.23325705     29.35443752     -6.00000000     20.88468912      6.01441596
> -Z    1     0.000     1.000     0.000     0.000    -0.000     0.000   180.000   102.224    29.377  -7.00   1   1   5   4    0.1046E+02   0.0000E+00   0.0000E+00     0.000     0.000
    102.23325705     29.35443752     -6.00000000     20.88468912      6.01441596
    102.21406725     29.39845390     -6.00000000     26.10604386      6.00369759
    102.21475633     29.39863853     -8.00000000     26.10137393      8.00490896
    102.23394273     29.35463002     -8.00000000     20.88095318      8.01563480
> -Z    1     0.000     1.000     0.000     0.000    -0.000     0.000   180.000   102.225    29.377  -9.00   1   1   5   5    0.1046E+02   0.0000E+00   0.0000E+00     0.000     0.000
    102.23394273     29.35463002     -8.00000000     20.88095318      8.01563480
    102.21475633     29.39863853     -8.00000000     26.10137393      8.00490896
    102.21544541     29.39882316    -10.00000000     26.09670404     10.00610974
    102.23462841     29.35482253    -10.00000000     20.87721724     10.01701709
> -Z    1     0.000     1.000     0.000     0.000    -0.000     0.000   180.000   102.205    29.425  -1.00   2   1   1   1    0.1242E+02   0.0000E+00   0.0000E+00     0.000     0.000
    102.21200000     29.39790000     -0.00000000     20.88095318      8.01563480
    102.19660000     29.45210000     -0.00000000     32.30903604     -0.13883857
    102.19729256     29.45227433     -2.00000000     32.30317656      1.86246124
    102.21268908     29.39808463     -2.00000000     26.11538396      2.00122033
> -Z    1     0.000     1.000     0.000     0.000    -0.000     0.000   180.000   102.205    29.425  -3.00   2   1   1   2    0.1242E+02   0.0000E+00   0.0000E+00     0.000     0.000
    102.21268908     29.39808463     -2.00000000     26.11538396      2.00122033
    102.19729256     29.45227433     -2.00000000     32.30317656      1.86246124
    102.19798511     29.45244866     -4.00000000     32.29731711      3.86375101
    102.21337817     29.39826926     -4.00000000     26.11071384      4.00247564
> -Z    1     0.000     1.000     0.000     0.000    -0.000     0.000   180.000   102.206    29.425  -5.00   2   1   1   3    0.1242E+02   0.0000E+00   0.0000E+00     0.000     0.000
    102.21337817     29.39826926     -4.00000000     26.11071384      4.00247564
    102.19798511     29.45244866     -4.00000000     32.29731711      3.86375101
    102.19867767     29.45262299     -6.00000000     32.29145770      5.86503073
    102.21406725     29.39845390     -6.00000000     26.10604386      6.00369759
> -Z    1     0.000     1.000     0.000     0.000    -0.000     0.000   180.000   102.207    29.426  -7.00   2   1   1   4    0.1242E+02   0.0000E+00   0.0000E+00     0.000     0.000
    102.21406725     29.39845390     -6.00000000     26.10604386      6.00369759
    102.19867767     29.45262299     -6.00000000     32.29145770      5.86503073
    102.19937022     29.45279733     -8.00000000     32.28559833      7.86630042
    102.21475633     29.39863853     -8.00000000     26.10137393      8.00490896
> -Z    1     0.000     1.000     0.000     0.000    -0.000     0.000   180.000   102.207    29.426  -9.00   2   1   1   5    0.1241E+02   0.0000E+00   0.0000E+00     0.000     0.000
    102.21475633     29.39863853     -8.00000000     26.10137393      8.00490896
    102.19937022     29.45279733     -8.00000000     32.28559833      7.86630042
    102.20006278     29.45297166    -10.00000000     32.27973958      9.86747785
    102.21544541     29.39882316    -10.00000000     26.09670404     10.00610974
> -Z    1     0.000     1.000     0.000     0.000    -0.000     0.000   180.000   102.189    29.479  -1.00   2   1   2   1    0.1242E+02   0.0000E+00   0.0000E+00     0.000     0.000
    102.19660000     29.45210000     -0.00000000     32.30903604     -0.13883857
    102.18120000     29.50630000     -0.00000000     38.49774352     -0.20825785
    102.18189603     29.50646403     -2.00000000     38.49069471      1.79306981
    102.19729256     29.45227433     -2.00000000     32.30317656      1.86246124
> -Z    1     0.000     1.000     0.000     0.000    -0.000     0.000   180.000   102.190    29.479  -3.00   2   1   2   2    0.1241E+02   0.0000E+00   0.0000E+00     0.000     0.000
    102.19729256     29.45227433     -2.00000000     32.30317656      1.86246124
    102.18189603     29.50646403     -2.00000000     38.49069471      1.79306981
    102.18259205     29.50662806     -4.00000000     38.48364595      3.79438798
    102.19798511     29.45244866     -4.00000000     32.29731711      3.86375101
> -Z    1     0.000     1.000     0.000     0.000    -0.000     0.000   180.000   102.191    29.480  -5.00   2   1   2   3    0.1241E+02   0.0000E+00   0.0000E+00     0.000     0.000
    102.19798511     29.45244866     -4.00000000     32.29731711      3.86375101
    102.18259205     29.50662806     -4.00000000     38.48364595      3.79438798
    102.18328808     29.50679209     -6.00000000     38.47659722      5.79569666
    102.19867767     29.45262299     -6.00000000     32.29145770      5.86503073
> -Z    1     0.000     1.000     0.000     0.000    -0.000     0.000   180.000   102.191    29.480  -7.00   2   1   2   4    0.1241E+02   0.0000E+00   0.0000E+00     0.000     0.000
    102.19867767     29.45262299     -6.00000000     32.29145770      5.86503073
    102.18328808     29.50679209     -6.00000000     38.47659722      5.79569666
    102.18398411     29.50695612     -8.00000000     38.46954853      7.79699584
    102.19937022     29.45279733     -8.00000000     32.28559833      7.86630042
> -Z    1     0.000     1.000     0.000     0.000    -0.000     0.000   180.000   102.192    29.480  -9.00   2   1   2   5    0.1241E+02   0.0000E+00   0.0000E+00     0.000     0.000
    102.19937022     29.45279733     -8.00000000     32.28559833      7.86630042
    102.18398411     29.50695612     -8.00000000     38.46954853      7.79699584
    102.18468014     29.50712015    -10.00000000     38.46250074      9.79816220
    102.20006278     29.45297166    -10.00000000     32.27973958      9.86747785
> -Z    1     0.000     1.000     0.000     0.000    -0.000     0.000   180.000   102.174    29.533  -1.00   2   1   3   1    0.1241E+02   0.0000E+00   0.0000E+00     0.000     0.000
    102.18120000     29.50630000     -0.00000000     38.49774352     -0.20825785
    102.16580000     29.56050000     -0.00000000     44.68617633     -0.20825785
    102.16649950     29.56065373     -2.00000000     44.67793833      1.79306883
    102.18189603     29.50646403     -2.00000000     38.49069471      1.79306981
> -Z    1     0.000     1.000     0.000     0.000    -0.000     0.000   180.000   102.175    29.534  -3.00   2   1   3   2    0.1241E+02   0.0000E+00   0.0000E+00     0.000     0.000
    102.18189603     29.50646403     -2.00000000     38.49069471      1.79306981
    102.16649950     29.56065373     -2.00000000     44.67793833      1.79306883
    102.16719900     29.56080746     -4.00000000     44.66970036      3.79438656
    102.18259205     29.50662806     -4.00000000     38.48364595      3.79438798
> -Z    1     0.000     1.000     0.000     0.000    -0.000     0.000   180.000   102.175    29.534  -5.00   2   1   3   3    0.1241E+02   0.0000E+00   0.0000E+00     0.000     0.000
    102.18259205     29.50662806     -4.00000000     38.48364595      3.79438798
    102.16719900     29.56080746     -4.00000000     44.66970036      3.79438656
    102.16789850     29.56096119     -6.00000000     44.66146243      5.79569535
    102.18328808     29.50679209     -6.00000000     38.47659722      5.79569666
> -Z    1     0.000     1.000     0.000     0.000    -0.000     0.000   180.000   102.176    29.534  -7.00   2   1   3   4    0.1240E+02   0.0000E+00   0.0000E+00     0.000     0.000
    102.18328808     29.50679209     -6.00000000     38.47659722      5.79569666
    102.16789850     29.56096119     -6.00000000     44.66146243      5.79569535
    102.16859800     29.56111492     -8.00000000     44.65322453      7.79699520
    102.18398411     29.50695612     -8.00000000     38.46954853      7.79699584
> -Z    1     0.000     1.000     0.000     0.000    -0.000     0.000   180.000   102.177    29.534  -9.00   2   1   3   5    0.1240E+02   0.0000E+00   0.0000E+00     0.000     0.000
    102.18398411     29.50695612     -8.00000000     38.46954853      7.79699584
    102.16859800     29.56111492     -8.00000000     44.65322453      7.79699520
    102.16929750     29.56126865    -10.00000000     44.64498753      9.79816279
    102.18468014     29.50712015    -10.00000000     38.46250074      9.79816220
> -Z    1     0.000     1.000     0.000     0.000    -0.000     0.000   180.000   102.158    29.588  -1.00   2   1   4   1    0.1240E+02   0.0000E+00   0.0000E+00     0.000     0.000
    102.16580000     29.56050000     -0.00000000     44.68617633     -0.20825785
    102.15040000     29.61470000     -0.00000000     44.65322453      7.79699520
    102.15110297     29.61484343     -2.00000000     50.86490739      1.86245828
    102.16649950     29.56065373     -2.00000000     44.67793833      1.79306883
> -Z    1     0.000     1.000     0.000     0.000    -0.000     0.000   180.000   102.159    29.588  -3.00   2   1   4   2    0.1240E+02   0.0000E+00   0.0000E+00     0.000     0.000
    102.16649950     29.56065373     -2.00000000     44.67793833      1.79306883
    102.15110297     29.61484343     -2.00000000     50.86490739      1.86245828
    102.15180594     29.61498686     -4.00000000     50.85548034      3.86374675
    102.16719900     29.56080746     -4.00000000     44.66970036      3.79438656
> -Z    1     0.000     1.000     0.000     0.000    -0.000     0.000   180.000   102.160    29.588  -5.00   2   1   4   3    0.1240E+02   0.0000E+00   0.0000E+00     0.000     0.000
    102.16719900     29.56080746     -4.00000000     44.66970036      3.79438656
    102.15180594     29.61498686     -4.00000000     50.85548034      3.86374675
    102.15250892     29.61513029     -6.00000000     50.84605332      5.86502683
    102.16789850     29.56096119     -6.00000000     44.66146243      5.79569535
> -Z    1     0.000     1.000     0.000     0.000    -0.000     0.000   180.000   102.161    29.588  -7.00   2   1   4   4    0.1240E+02   0.0000E+00   0.0000E+00     0.000     0.000
    102.16789850     29.56096119     -6.00000000     44.66146243      5.79569535
    102.15250892     29.61513029     -6.00000000     50.84605332      5.86502683
    102.15321189     29.61527372     -8.00000000     50.83662633      7.86629852
    102.16859800     29.56111492     -8.00000000     44.65322453      7.79699520
> -Z    1     0.000     1.000     0.000     0.000    -0.000     0.000   180.000   102.161    29.588  -9.00   2   1   4   5    0.1239E+02   0.0000E+00   0.0000E+00     0.000     0.000
    102.16859800     29.56111492     -8.00000000     44.65322453      7.79699520
    102.15321189     29.61527372     -8.00000000     50.83662633      7.86629852
    102.15391486     29.61541715    -10.00000000     50.82719937      9.86756183
    102.16929750     29.56126865    -10.00000000     44.64498753      9.79816279
> -Z    1     0.000     1.000     0.000     0.000    -0.000     0.000   180.000   102.143    29.642  -1.00   2   1   5   1    0.1240E+02   0.0000E+00   0.0000E+00     0.000     0.000
    102.15040000     29.61470000     -0.00000000     44.65322453      7.79699520
    102.13500000     29.66890000     -0.00000000     50.83662633      7.86629852
    102.13570644     29.66903313     -2.00000000     57.05160192      2.00123818
    102.15110297     29.61484343     -2.00000000     50.86490739      1.86245828
> -Z    1     0.000     1.000     0.000     0.000    -0.000     0.000   180.000   102.144    29.642  -3.00   2   1   5   2    0.1239E+02   0.0000E+00   0.0000E+00     0.000     0.000
    102.15110297     29.61484343     -2.00000000     50.86490739      1.86245828
    102.13570644     29.66903313     -2.00000000     57.05160192      2.00123818
    102.13641289     29.66916626     -4.00000000     57.04098587      4.00246376
    102.15180594     29.61498686     -4.00000000     50.85548034      3.86374675
> -Z    1     0.000     1.000     0.000     0.000    -0.000     0.000   180.000   102.144    29.642  -5.00   2   1   5   3    0.1239E+02   0.0000E+00   0.0000E+00     0.000     0.000
    102.15180594     29.61498686     -4.00000000     50.85548034      3.86374675
    102.13641289     29.66916626     -4.00000000     57.04098587      4.00246376
    102.13711933     29.66929939     -6.00000000     57.03036987      6.00368630
    102.15250892     29.61513029     -6.00000000     50.84605332      5.86502683
> -Z    1     0.000     1.000     0.000     0.000    -0.000     0.000   180.000   102.145    29.642  -7.00   2   1   5   4    0.1239E+02   0.0000E+00   0.0000E+00     0.000     0.000
    102.15250892     29.61513029     -6.00000000     50.84605332      5.86502683
    102.13711933     29.66929939     -6.00000000     57.03036987      6.00368630
    102.13782578     29.66943252     -8.00000000     57.01975392      8.00490580
    102.15321189     29.61527372     -8.00000000     50.83662633      7.86629852
> -Z    1     0.000     1.000     0.000     0.000    -0.000     0.000   180.000   102.146    29.642  -9.00   2   1   5   5    0.1239E+02   0.0000E+00   0.0000E+00     0.000     0.000
    102.15321189     29.61527372     -8.00000000     50.83662633      7.86629852
    102.13782578     29.66943252     -8.00000000     57.01975392      8.00490580
    102.13853222     29.66956565    -10.00000000     57.00913799     10.00611269
    102.15391486     29.61541715    -10.00000000     50.82719937      9.86756183
> -Z    1     0.000     1.000     0.000     0.000    -0.000     0.000   180.000   102.130    29.696  -1.00   3   1   1   1    0.1227E+02   0.0000E+00   0.0000E+00     0.000     0.000
    102.13500000     29.66890000     -0.00000000     50.83662633      7.86629852
    102.12340000     29.72312000     -0.00000000     63.17477926     -0.08331762
    102.12410767     29.72324951     -2.00000000     63.16374750      1.91793145
    102.13570644     29.66903313     -2.00000000     57.05160192      2.00123818
> -Z    1     0.000     1.000     0.000     0.000    -0.000     0.000   180.000   102.130    29.696  -3.00   3   1   1   2    0.1227E+02   0.0000E+00   0.0000E+00     0.000     0.000
    102.13570644     29.66903313     -2.00000000     57.05160192      2.00123818
    102.12410767     29.72324951     -2.00000000     63.16374750      1.91793145
    102.12481534     29.72337903     -4.00000000     63.15271579      3.91917445
    102.13641289     29.66916626     -4.00000000     57.04098587      4.00246376
> -Z    1     0.000     1.000     0.000     0.000    -0.000     0.000   180.000   102.131    29.696  -5.00   3   1   1   3    0.1227E+02   0.0000E+00   0.0000E+00     0.000     0.000
    102.13641289     29.66916626     -4.00000000     57.04098587      4.00246376
    102.12481534     29.72337903     -4.00000000     63.15271579      3.91917445
    102.12552300     29.72350854     -6.00000000     63.14168411      5.92041137
    102.13711933     29.66929939     -6.00000000     57.03036987      6.00368630
> -Z    1     0.000     1.000     0.000     0.000    -0.000     0.000   180.000   102.132    29.696  -7.00   3   1   1   4    0.1227E+02   0.0000E+00   0.0000E+00     0.000     0.000
    102.13711933     29.66929939     -6.00000000     57.03036987      6.00368630
    102.12552300     29.72350854     -6.00000000     63.14168411      5.92041137
    102.12623067     29.72363806     -8.00000000     63.13065247      7.92164223
    102.13782578     29.66943252     -8.00000000     57.01975392      8.00490580
> -Z    1     0.000     1.000     0.000     0.000    -0.000     0.000   180.000   102.132    29.697  -9.00   3   1   1   5    0.1227E+02   0.0000E+00   0.0000E+00     0.000     0.000
    102.13782578     29.66943252     -8.00000000     57.01975392      8.00490580
    102.12623067     29.72363806     -8.00000000     63.13065247      7.92164223
    102.12693834     29.72376757    -10.00000000     63.11962094      9.92287282
    102.13853222     29.66956565    -10.00000000     57.00913799     10.00611269
> -Z    1     0.000     1.000     0.000     0.000    -0.000     0.000   180.000   102.118    29.750  -1.00   3   1   2   1    0.1227E+02   0.0000E+00   0.0000E+00     0.000     0.000
    102.12340000     29.72312000     -0.00000000     63.17477926     -0.08331762
    102.11180000     29.77734000     -0.00000000     69.28708184     -0.12497642
    102.11250889     29.77746590     -2.00000000     69.27563446      1.87627954
    102.12410767     29.72324951     -2.00000000     63.16374750      1.91793145
> -Z    1     0.000     1.000     0.000     0.000    -0.000     0.000   180.000   102.119    29.750  -3.00   3   1   2   2    0.1226E+02   0.0000E+00   0.0000E+00     0.000     0.000
    102.12410767     29.72324951     -2.00000000     63.16374750      1.91793145
    102.11250889     29.77746590     -2.00000000     69.27563446      1.87627954
    102.11321779     29.77759180     -4.00000000     69.26418711      3.87752959
    102.12481534     29.72337903     -4.00000000     63.15271579      3.91917445
> -Z    1     0.000     1.000     0.000     0.000    -0.000     0.000   180.000   102.119    29.751  -5.00   3   1   2   3    0.1226E+02   0.0000E+00   0.0000E+00     0.000     0.000
    102.12481534     29.72337903     -4.00000000     63.15271579      3.91917445
    102.11321779     29.77759180     -4.00000000     69.26418711      3.87752959
    102.11392668     29.77771770     -6.00000000     69.25273980      5.87877373
    102.12552300     29.72350854     -6.00000000     63.14168411      5.92041137
> -Z    1     0.000     1.000     0.000     0.000    -0.000     0.000   180.000   102.120    29.751  -7.00   3   1   2   4    0.1226E+02   0.0000E+00   0.0000E+00     0.000     0.000
    102.12552300     29.72350854     -6.00000000     63.14168411      5.92041137
    102.11392668     29.77771770     -6.00000000     69.25273980      5.87877373
    102.11463557     29.77784360     -8.00000000     69.24129253      7.88001196
    102.12623067     29.72363806     -8.00000000     63.13065247      7.92164223
> -Z    1     0.000     1.000     0.000     0.000    -0.000     0.000   180.000   102.121    29.751  -9.00   3   1   2   5    0.1226E+02   0.0000E+00   0.0000E+00     0.000     0.000
    102.12623067     29.72363806     -8.00000000     63.13065247      7.92164223
    102.11463557     29.77784360     -8.00000000     69.24129253      7.88001196
    102.11534446     29.77796950    -10.00000000     69.22984540      9.88125300
    102.12693834     29.72376757    -10.00000000     63.11962094      9.92287282
> -Z    1     0.000     1.000     0.000     0.000    -0.000     0.000   180.000   102.106    29.805  -1.00   3   1   3   1    0.1226E+02   0.0000E+00   0.0000E+00     0.000     0.000
    102.11180000     29.77734000     -0.00000000     69.28708184     -0.12497642
    102.10020000     29.83156000     -0.00000000     75.39912574     -0.12497642
    102.10091012     29.83168228     -2.00000000     75.38726277      1.87627926
    102.11250889     29.77746590     -2.00000000     69.27563446      1.87627954
> -Z    1     0.000     1.000     0.000     0.000    -0.000     0.000   180.000   102.107    29.805  -3.00   3   1   3   2    0.1226E+02   0.0000E+00   0.0000E+00     0.000     0.000
    102.11250889     29.77746590     -2.00000000     69.27563446      1.87627954
    102.10091012     29.83168228     -2.00000000     75.38726277      1.87627926
    102.10162023     29.83180457     -4.00000000     75.37539983      3.87752920
    102.11321779     29.77759180     -4.00000000     69.26418711      3.87752959
> -Z    1     0.000     1.000     0.000     0.000    -0.000     0.000   180.000   102.108    29.805  -5.00   3   1   3   3    0.1226E+02   0.0000E+00   0.0000E+00     0.000     0.000
    102.11321779     29.77759180     -4.00000000     69.26418711      3.87752959
    102.10162023     29.83180457     -4.00000000     75.37539983      3.87752920
    102.10233035     29.83192685     -6.00000000     75.36353693      5.87877338
    102.11392668     29.77771770     -6.00000000     69.25273980      5.87877373
> -Z    1     0.000     1.000     0.000     0.000    -0.000     0.000   180.000   102.108    29.805  -7.00   3   1   3   4    0.1226E+02   0.0000E+00   0.0000E+00     0.000     0.000
    102.11392668     29.77771770     -6.00000000     69.25273980      5.87877373
    102.10233035     29.83192685     -6.00000000     75.36353693      5.87877338
    102.10304047     29.83204914     -8.00000000     75.35167407      7.88001181
    102.11463557     29.77784360     -8.00000000     69.24129253      7.88001196
> -Z    1     0.000     1.000     0.000     0.000    -0.000     0.000   180.000   102.109    29.805  -9.00   3   1   3   5    0.1226E+02   0.0000E+00   0.0000E+00     0.000     0.000
    102.11463557     29.77784360     -8.00000000     69.24129253      7.88001196
    102.10304047     29.83204914     -8.00000000     75.35167407      7.88001181
    102.10375058     29.83217142    -10.00000000     75.33981135      9.88125321
    102.11534446     29.77796950    -10.00000000     69.22984540      9.88125300
> -Z    1     0.000     1.000     0.000     0.000    -0.000     0.000   180.000   102.095    29.859  -1.00   3   1   4   1    0.1225E+02   0.0000E+00   0.0000E+00     0.000     0.000
    102.10020000     29.83156000     -0.00000000     75.39912574     -0.12497642
    102.08860000     29.88578000     -0.00000000     81.51091095     -0.08331762
    102.08931134     29.88589867     -2.00000000     81.49863243      1.91793062
    102.10091012     29.83168228     -2.00000000     75.38726277      1.87627926
> -Z    1     0.000     1.000     0.000     0.000    -0.000     0.000   180.000   102.095    29.859  -3.00   3   1   4   2    0.1225E+02   0.0000E+00   0.0000E+00     0.000     0.000
    102.10091012     29.83168228     -2.00000000     75.38726277      1.87627926
    102.08931134     29.88589867     -2.00000000     81.49863243      1.91793062
    102.09002268     29.88601734     -4.00000000     81.48635395      3.91917326
    102.10162023     29.83180457     -4.00000000     75.37539983      3.87752920
> -Z    1     0.000     1.000     0.000     0.000    -0.000     0.000   180.000   102.096    29.859  -5.00   3   1   4   3    0.1225E+02   0.0000E+00   0.0000E+00     0.000     0.000
    102.10162023     29.83180457     -4.00000000     75.37539983      3.87752920
    102.09002268     29.88601734     -4.00000000     81.48635395      3.91917326
    102.09073402     29.88613601     -6.00000000     81.47407551      5.92041031
    102.10233035     29.83192685     -6.00000000     75.36353693      5.87877338
> -Z    1     0.000     1.000     0.000     0.000    -0.000     0.000   180.000   102.097    29.859  -7.00   3   1   4   4    0.1225E+02   0.0000E+00   0.0000E+00     0.000     0.000
    102.10233035     29.83192685     -6.00000000     75.36353693      5.87877338
    102.09073402     29.88613601     -6.00000000     81.47407551      5.92041031
    102.09144536     29.88625468     -8.00000000     81.46179710      7.92164178
    102.10304047     29.83204914     -8.00000000     75.35167407      7.88001181
> -Z    1     0.000     1.000     0.000     0.000    -0.000     0.000   180.000   102.098    29.859  -9.00   3   1   4   5    0.1225E+02   0.0000E+00   0.0000E+00     0.000     0.000
    102.10304047     29.83204914     -8.00000000     75.35167407      7.88001181
    102.09144536     29.88625468     -8.00000000     81.46179710      7.92164178
    102.09215671     29.88637335    -10.00000000     81.44951872      9.92286765
    102.10375058     29.83217142    -10.00000000     75.33981135      9.88125321
> -Z    1     0.000     1.000     0.000     0.000    -0.000     0.000   180.000   102.083    29.913  -1.00   3   1   5   1    0.1225E+02   0.0000E+00   0.0000E+00     0.000     0.000
    102.08860000     29.88578000     -0.00000000     81.51091095     -0.08331762
    102.07700000     29.94000000     -0.00000000     81.46179710      7.92164178
    102.07771257     29.94011506     -2.00000000     81.44951872      9.92286765
    102.08931134     29.88589867     -2.00000000     81.49863243      1.91793062
> -Z    1     0.000     1.000     0.000     0.000    -0.000     0.000   180.000   102.084    29.913  -3.00   3   1   5   2    0.1224E+02   0.0000E+00   0.0000E+00     0.000     0.000
    102.08931134     29.88589867     -2.00000000     81.49863243      1.91793062
    102.07771257     29.94011506     -2.00000000     81.46179710      7.92164178
    102.07842513     29.94023011     -4.00000000     81.44951872      9.92286765
    102.09002268     29.88601734     -4.00000000     81.48635395      3.91917326
> -Z    1     0.000     1.000     0.000     0.000    -0.000     0.000   180.000   102.085    29.913  -5.00   3   1   5   3    0.1224E+02   0.0000E+00   0.0000E+00     0.000     0.000
    102.09002268     29.88601734     -4.00000000     81.48635395      3.91917326
    102.07842513     29.94023011     -4.00000000     81.46179710      7.92164178
    102.07913770     29.94034517     -6.00000000     81.44951872      9.92286765
    102.09073402     29.88613601     -6.00000000     81.47407551      5.92041031
> -Z    1     0.000     1.000     0.000     0.000    -0.000     0.000   180.000   102.085    29.913  -7.00   3   1   5   4    0.1224E+02   0.0000E+00   0.0000E+00     0.000     0.000
    102.09073402     29.88613601     -6.00000000     81.47407551      5.92041031
    102.07913770     29.94034517     -6.00000000     81.46179710      7.92164178
    102.07985026     29.94046022     -8.00000000     81.44951872      9.92286765
    102.09144536     29.88625468     -8.00000000     81.46179710      7.92164178
> -Z    1     0.000     1.000     0.000     0.000    -0.000     0.000   180.000   102.086    29.913  -9.00   3   1   5   5    0.1224E+02   0.0000E+00   0.0000E+00     0.000     0.000
    102.09144536     29.88625468     -8.00000000     81.46179710      7.92164178
    102.07985026     29.94046022     -8.00000000     81.46179710      7.92164178
    102.08056283     29.94057528    -10.00000000     87.55896774     10.00611375
    102.09215671     29.88637335    -10.00000000     81.44951872      9.92286765
> -Z    1     0.000     1.000     0.000     0.000    -0.000     0.000   180.000   102.302    29.201 -11.00   1   2   1   1    0.1048E+02   0.0000E+00   0.0000E+00     0.000     0.000
    102.31136039     29.17882000    -10.00000000     -0.00000000     10.00610689
    102.29217740     29.22282063    -10.00000000      5.21919482     10.01701538
    102.29285288     29.22303676    -12.00000000      5.21826062     12.01823110
    102.31203248     29.17904400    -12.00000000      0.00000003     12.00732632
> -Z    1     0.000     1.000     0.000     0.000    -0.000     0.000   180.000   102.303    29.201 -13.00   1   2   1   2    0.1047E+02   0.0000E+00   0.0000E+00     0.000     0.000
    102.31203248     29.17904400    -12.00000000      0.00000003     12.00732632
    102.29285288     29.22303676    -12.00000000      5.21826062     12.01823110
    102.29352837     29.22325288    -14.00000000      5.21732641     14.01944777
    102.31270456     29.17926800    -14.00000000      0.00000003     12.00732632
> -Z    1     0.000     1.000     0.000     0.000    -0.000     0.000   180.000   102.303    29.201 -15.00   1   2   1   3    0.1047E+02   0.0000E+00   0.0000E+00     0.000     0.000
    102.31270456     29.17926800    -14.00000000      0.00000003     12.00732632
    102.29352837     29.22325288    -14.00000000      5.21732641     14.01944777
    102.29420386     29.22346900    -16.00000000      5.21639219     16.02066537
    102.31337665     29.17949200    -16.00000000      0.00000003     12.00732632
> -Z    1     0.000     1.000     0.000     0.000    -0.000     0.000   180.000   102.304    29.202 -17.00   1   2   1   4    0.1047E+02   0.0000E+00   0.0000E+00     0.000     0.000
    102.31337665     29.17949200    -16.00000000      0.00000003     12.00732632
    102.29420386     29.22346900    -16.00000000      5.21639219     16.02066537
    102.29487935     29.22368513    -18.00000000      5.21545796     18.02188392
    102.31404874     29.17971600    -18.00000000      0.00000003     12.00732632
> -Z    1     0.000     1.000     0.000     0.000    -0.000     0.000   180.000   102.305    29.202 -19.00   1   2   1   5    0.1047E+02   0.0000E+00   0.0000E+00     0.000     0.000
    102.31404874     29.17971600    -18.00000000      0.00000003     12.00732632
    102.29487935     29.22368513    -18.00000000      5.21545796     18.02188392
    102.29555483     29.22390125    -20.00000000      5.21545796     18.02188392
    102.31472082     29.17994000    -20.00000000      0.00000000     20.01221378
> -Z    1     0.000     1.000     0.000     0.000    -0.000     0.000   180.000   102.283    29.245 -11.00   1   2   2   1    0.1047E+02   0.0000E+00   0.0000E+00     0.000     0.000
    102.29217740     29.22282063    -10.00000000      5.21919482     10.01701538
    102.27299440     29.26682126    -10.00000000     10.43846263     10.02246991
    102.27367329     29.26702951    -12.00000000     10.43659419     12.02368387
    102.29285288     29.22303676    -12.00000000      5.21826062     12.01823110
> -Z    1     0.000     1.000     0.000     0.000    -0.000     0.000   180.000   102.284    29.245 -13.00   1   2   2   2    0.1047E+02   0.0000E+00   0.0000E+00     0.000     0.000
    102.29285288     29.22303676    -12.00000000      5.21826062     12.01823110
    102.27367329     29.26702951    -12.00000000     10.43659419     12.02368387
    102.27435218     29.26723776    -14.00000000     10.43472573     14.02489873
    102.29352837     29.22325288    -14.00000000      5.21732641     14.01944777
> -Z    1     0.000     1.000     0.000     0.000    -0.000     0.000   180.000   102.284    29.245 -15.00   1   2   2   3    0.1047E+02   0.0000E+00   0.0000E+00     0.000     0.000
    102.29352837     29.22325288    -14.00000000      5.21732641     14.01944777
    102.27435218     29.26723776    -14.00000000     10.43472573     14.02489873
    102.27503107     29.26744601    -16.00000000     10.43285726     16.02611451
    102.29420386     29.22346900    -16.00000000      5.21639219     16.02066537
> -Z    1     0.000     1.000     0.000     0.000    -0.000     0.000   180.000   102.285    29.246 -17.00   1   2   2   4    0.1047E+02   0.0000E+00   0.0000E+00     0.000     0.000
    102.29420386     29.22346900    -16.00000000      5.21639219     16.02066537
    102.27503107     29.26744601    -16.00000000     10.43285726     16.02611451
    102.27570996     29.26765425    -18.00000000     10.43098878     18.02733120
    102.29487935     29.22368513    -18.00000000      5.21545796     18.02188392
> -Z    1     0.000     1.000     0.000     0.000    -0.000     0.000   180.000   102.286    29.246 -19.00   1   2   2   5    0.1046E+02   0.0000E+00   0.0000E+00     0.000     0.000
    102.29487935     29.22368513    -18.00000000      5.21545796     18.02188392
    102.27570996     29.26765425    -18.00000000     10.43098878     18.02733120
    102.27638885     29.26786250    -20.00000000     10.43098878     18.02733120
    102.29555483     29.22390125    -20.00000000      5.21545796     18.02188392
> -Z    1     0.000     1.000     0.000     0.000    -0.000     0.000   180.000   102.264    29.289 -11.00   1   2   3   1    0.1047E+02   0.0000E+00   0.0000E+00     0.000     0.000
    102.27299440     29.26682126    -10.00000000     10.43846263     10.02246991
    102.25381141     29.31082190    -10.00000000     15.65780344     10.02247048
    102.25449370     29.31102227    -12.00000000     15.65500072     12.02368461
    102.27367329     29.26702951    -12.00000000     10.43659419     12.02368387
> -Z    1     0.000     1.000     0.000     0.000    -0.000     0.000   180.000   102.264    29.289 -13.00   1   2   3   2    0.1046E+02   0.0000E+00   0.0000E+00     0.000     0.000
    102.27367329     29.26702951    -12.00000000     10.43659419     12.02368387
    102.25449370     29.31102227    -12.00000000     15.65500072     12.02368461
    102.25517599     29.31122264    -14.00000000     15.65219799     14.02489962
    102.27435218     29.26723776    -14.00000000     10.43472573     14.02489873
> -Z    1     0.000     1.000     0.000     0.000    -0.000     0.000   180.000   102.265    29.289 -15.00   1   2   3   3    0.1046E+02   0.0000E+00   0.0000E+00     0.000     0.000
    102.27435218     29.26723776    -14.00000000     10.43472573     14.02489873
    102.25517599     29.31122264    -14.00000000     15.65219799     14.02489962
    102.25585828     29.31142301    -16.00000000     15.64939524     16.02611551
    102.27503107     29.26744601    -16.00000000     10.43285726     16.02611451
> -Z    1     0.000     1.000     0.000     0.000    -0.000     0.000   180.000   102.266    29.290 -17.00   1   2   3   4    0.1046E+02   0.0000E+00   0.0000E+00     0.000     0.000
    102.27503107     29.26744601    -16.00000000     10.43285726     16.02611451
    102.25585828     29.31142301    -16.00000000     15.64939524     16.02611551
    102.25654057     29.31162338    -18.00000000     15.64659249     18.02733229
    102.27570996     29.26765425    -18.00000000     10.43098878     18.02733120
> -Z    1     0.000     1.000     0.000     0.000    -0.000     0.000   180.000   102.266    29.290 -19.00   1   2   3   5    0.1046E+02   0.0000E+00   0.0000E+00     0.000     0.000
    102.27570996     29.26765425    -18.00000000     10.43098878     18.02733120
    102.25654057     29.31162338    -18.00000000     15.64659249     18.02733229
    102.25722286     29.31182375    -20.00000000     15.64659249     18.02733229
    102.27638885     29.26786250    -20.00000000     10.43098878     18.02733120
> -Z    1     0.000     1.000     0.000     0.000    -0.000     0.000   180.000   102.245    29.333 -11.00   1   2   4   1    0.1046E+02   0.0000E+00   0.0000E+00     0.000     0.000
    102.25381141     29.31082190    -10.00000000     15.65780344     10.02247048
    102.23462841     29.35482253    -10.00000000     20.87721724     10.01701709
    102.23531410     29.35501502    -12.00000000     20.87348022     12.01823334
    102.25449370     29.31102227    -12.00000000     15.65500072     12.02368461
> -Z    1     0.000     1.000     0.000     0.000    -0.000     0.000   180.000   102.245    29.333 -13.00   1   2   4   2    0.1046E+02   0.0000E+00   0.0000E+00     0.000     0.000
    102.25449370     29.31102227    -12.00000000     15.65500072     12.02368461
    102.23531410     29.35501502    -12.00000000     20.87348022     12.01823334
    102.23599979     29.35520752    -14.00000000     20.86974319     14.01945043
    102.25517599     29.31122264    -14.00000000     15.65219799     14.02489962
> -Z    1     0.000     1.000     0.000     0.000    -0.000     0.000   180.000   102.246    29.333 -15.00   1   2   4   3    0.1046E+02   0.0000E+00   0.0000E+00     0.000     0.000
    102.25517599     29.31122264    -14.00000000     15.65219799     14.02489962
    102.23599979     29.35520752    -14.00000000     20.86974319     14.01945043
    102.23668549     29.35540001    -16.00000000     20.86600614     16.02066838
    102.25585828     29.31142301    -16.00000000     15.64939524     16.02611551
> -Z    1     0.000     1.000     0.000     0.000    -0.000     0.000   180.000   102.247    29.334 -17.00   1   2   4   4    0.1046E+02   0.0000E+00   0.0000E+00     0.000     0.000
    102.25585828     29.31142301    -16.00000000     15.64939524     16.02611551
    102.23668549     29.35540001    -16.00000000     20.86600614     16.02066838
    102.23737118     29.35559251    -18.00000000     20.86226909     18.02188719
    102.25654057     29.31162338    -18.00000000     15.64659249     18.02733229
> -Z    1     0.000     1.000     0.000     0.000    -0.000     0.000   180.000   102.247    29.334 -19.00   1   2   4   5    0.1045E+02   0.0000E+00   0.0000E+00     0.000     0.000
    102.25654057     29.31162338    -18.00000000     15.64659249     18.02733229
    102.23737118     29.35559251    -18.00000000     20.86226909     18.02188719
    102.23805687     29.35578500    -20.00000000     20.86226909     18.02188719
    102.25722286     29.31182375    -20.00000000     15.64659249     18.02733229
> -Z    1     0.000     1.000     0.000     0.000    -0.000     0.000   180.000   102.225    29.377 -11.00   1   2   5   1    0.1046E+02   0.0000E+00   0.0000E+00     0.000     0.000
    102.23462841     29.35482253    -10.00000000     20.87721724     10.01701709
    102.21544541     29.39882316    -10.00000000     26.09670404     10.00610974
    102.21613451     29.39900778    -12.00000000     26.09203269     12.00733005
    102.23531410     29.35501502    -12.00000000     20.87348022     12.01823334
> -Z    1     0.000     1.000     0.000     0.000    -0.000     0.000   180.000   102.226    29.377 -13.00   1   2   5   2    0.1046E+02   0.0000E+00   0.0000E+00     0.000     0.000
    102.23531410     29.35501502    -12.00000000     20.87348022     12.01823334
    102.21613451     29.39900778    -12.00000000     26.09203269     12.00733005
    102.21682360     29.39919240    -14.00000000     26.08736117     14.00858540
    102.23599979     29.35520752    -14.00000000     20.86974319     14.01945043
> -Z    1     0.000     1.000     0.000     0.000    -0.000     0.000   180.000   102.227    29.377 -15.00   1   2   5   3    0.1045E+02   0.0000E+00   0.0000E+00     0.000     0.000
    102.23599979     29.35520752    -14.00000000     20.86974319     14.01945043
    102.21682360     29.39919240    -14.00000000     26.08736117     14.00858540
    102.21751269     29.39937702    -16.00000000     26.08268996     16.00977312
    102.23668549     29.35540001    -16.00000000     20.86600614     16.02066838
> -Z    1     0.000     1.000     0.000     0.000    -0.000     0.000   180.000   102.227    29.377 -17.00   1   2   5   4    0.1045E+02   0.0000E+00   0.0000E+00     0.000     0.000
    102.23668549     29.35540001    -16.00000000     20.86600614     16.02066838
    102.21751269     29.39937702    -16.00000000     26.08268996     16.00977312
    102.21820179     29.39956164    -18.00000000     26.07801858     18.01099589
    102.23737118     29.35559251    -18.00000000     20.86226909     18.02188719
> -Z    1     0.000     1.000     0.000     0.000    -0.000     0.000   180.000   102.228    29.378 -19.00   1   2   5   5    0.1045E+02   0.0000E+00   0.0000E+00     0.000     0.000
    102.23737118     29.35559251    -18.00000000     20.86226909     18.02188719
    102.21820179     29.39956164    -18.00000000     26.07801858     18.01099589
    102.21889088     29.39974626    -20.00000000     26.07334718     20.01221949
    102.23805687     29.35578500    -20.00000000     20.86226909     18.02188719
> -Z    1     0.000     1.000     0.000     0.000    -0.000     0.000   180.000   102.208    29.426 -11.00   2   2   1   1    0.1241E+02   0.0000E+00   0.0000E+00     0.000     0.000
    102.21544541     29.39882316    -10.00000000     26.09670404     10.00610974
    102.20006278     29.45297166    -10.00000000     32.27973958      9.86747785
    102.20075534     29.45314597    -12.00000000     32.27387832     11.86877766
    102.21613451     29.39900778    -12.00000000     26.09203269     12.00733005
> -Z    1     0.000     1.000     0.000     0.000    -0.000     0.000   180.000   102.209    29.426 -13.00   2   2   1   2    0.1241E+02   0.0000E+00   0.0000E+00     0.000     0.000
    102.21613451     29.39900778    -12.00000000     26.09203269     12.00733005
    102.20075534     29.45314597    -12.00000000     32.27387832     11.86877766
    102.20144791     29.45332029    -14.00000000     32.26801711     13.87006742
    102.21682360     29.39919240    -14.00000000     26.08736117     14.00858540
> -Z    1     0.000     1.000     0.000     0.000    -0.000     0.000   180.000   102.209    29.426 -15.00   2   2   1   3    0.1241E+02   0.0000E+00   0.0000E+00     0.000     0.000
    102.21682360     29.39919240    -14.00000000     26.08736117     14.00858540
    102.20144791     29.45332029    -14.00000000     32.26801711     13.87006742
    102.20214047     29.45349460    -16.00000000     32.26215593     15.87134713
    102.21751269     29.39937702    -16.00000000     26.08268996     16.00977312
> -Z    1     0.000     1.000     0.000     0.000    -0.000     0.000   180.000   102.210    29.427 -17.00   2   2   1   4    0.1240E+02   0.0000E+00   0.0000E+00     0.000     0.000
    102.21751269     29.39937702    -16.00000000     26.08268996     16.00977312
    102.20214047     29.45349460    -16.00000000     32.26215593     15.87134713
    102.20283304     29.45366892    -18.00000000     32.25629480     17.87261679
    102.21820179     29.39956164    -18.00000000     26.07801858     18.01099589
> -Z    1     0.000     1.000     0.000     0.000    -0.000     0.000   180.000   102.211    29.427 -19.00   2   2   1   5    0.1240E+02   0.0000E+00   0.0000E+00     0.000     0.000
    102.21820179     29.39956164    -18.00000000     26.07801858     18.01099589
    102.20283304     29.45366892    -18.00000000     32.25629480     17.87261679
    102.20352561     29.45384323    -20.00000000     32.25629480     17.87261679
    102.21889088     29.39974626    -20.00000000     26.07334718     20.01221949
> -Z    1     0.000     1.000     0.000     0.000    -0.000     0.000   180.000   102.193    29.480 -11.00   2   2   2   1    0.1241E+02   0.0000E+00   0.0000E+00     0.000     0.000
    102.20006278     29.45297166    -10.00000000     32.27973958      9.86747785
    102.18468014     29.50712015    -10.00000000     38.46250074      9.79816220
    102.18537617     29.50728417    -12.00000000     38.45544980     11.79948985
    102.20075534     29.45314597    -12.00000000     32.27387832     11.86877766
> -Z    1     0.000     1.000     0.000     0.000    -0.000     0.000   180.000   102.193    29.480 -13.00   2   2   2   2    0.1240E+02   0.0000E+00   0.0000E+00     0.000     0.000
    102.20075534     29.45314597    -12.00000000     32.27387832     11.86877766
    102.18537617     29.50728417    -12.00000000     38.45544980     11.79948985
    102.18607221     29.50744818    -14.00000000     38.44839890     13.80080801
    102.20144791     29.45332029    -14.00000000     32.26801711     13.87006742
> -Z    1     0.000     1.000     0.000     0.000    -0.000     0.000   180.000   102.194    29.480 -15.00   2   2   2   3    0.1240E+02   0.0000E+00   0.0000E+00     0.000     0.000
    102.20144791     29.45332029    -14.00000000     32.26801711     13.87006742
    102.18607221     29.50744818    -14.00000000     38.44839890     13.80080801
    102.18676825     29.50761219    -16.00000000     38.44134803     15.80211666
    102.20214047     29.45349460    -16.00000000     32.26215593     15.87134713
> -Z    1     0.000     1.000     0.000     0.000    -0.000     0.000   180.000   102.195    29.481 -17.00   2   2   2   4    0.1240E+02   0.0000E+00   0.0000E+00     0.000     0.000
    102.20214047     29.45349460    -16.00000000     32.26215593     15.87134713
    102.18676825     29.50761219    -16.00000000     38.44134803     15.80211666
    102.18746429     29.50777620    -18.00000000     38.43429720     17.80341581
    102.20283304     29.45366892    -18.00000000     32.25629480     17.87261679
> -Z    1     0.000     1.000     0.000     0.000    -0.000     0.000   180.000   102.195    29.481 -19.00   2   2   2   5    0.1240E+02   0.0000E+00   0.0000E+00     0.000     0.000
    102.20283304     29.45366892    -18.00000000     32.25629480     17.87261679
    102.18746429     29.50777620    -18.00000000     38.43429720     17.80341581
    102.18816033     29.50794021    -20.00000000     38.43429720     17.80341581
    102.20352561     29.45384323    -20.00000000     32.25629480     17.87261679
> -Z    1     0.000     1.000     0.000     0.000    -0.000     0.000   180.000   102.177    29.534 -11.00   2   2   3   1    0.1240E+02   0.0000E+00   0.0000E+00     0.000     0.000
    102.18468014     29.50712015    -10.00000000     38.46250074      9.79816220
    102.16929750     29.56126865    -10.00000000     44.64498753      9.79816279
    102.16999701     29.56142236    -12.00000000     44.63674702     11.79948946
    102.18537617     29.50728417    -12.00000000     38.45544980     11.79948985
> -Z    1     0.000     1.000     0.000     0.000    -0.000     0.000   180.000   102.178    29.534 -13.00   2   2   3   2    0.1240E+02   0.0000E+00   0.0000E+00     0.000     0.000
    102.18537617     29.50728417    -12.00000000     38.45544980     11.79948985
    102.16999701     29.56142236    -12.00000000     44.63674702     11.79948946
    102.17069652     29.56157607    -14.00000000     44.62850654     13.80080717
    102.18607221     29.50744818    -14.00000000     38.44839890     13.80080801
> -Z    1     0.000     1.000     0.000     0.000    -0.000     0.000   180.000   102.179    29.535 -15.00   2   2   3   3    0.1239E+02   0.0000E+00   0.0000E+00     0.000     0.000
    102.18607221     29.50744818    -14.00000000     38.44839890     13.80080801
    102.17069652     29.56157607    -14.00000000     44.62850654     13.80080717
    102.17139603     29.56172977    -16.00000000     44.62026610     15.80211595
    102.18676825     29.50761219    -16.00000000     38.44134803     15.80211666
> -Z    1     0.000     1.000     0.000     0.000    -0.000     0.000   180.000   102.179    29.535 -17.00   2   2   3   4    0.1239E+02   0.0000E+00   0.0000E+00     0.000     0.000
    102.18676825     29.50761219    -16.00000000     38.44134803     15.80211666
    102.17139603     29.56172977    -16.00000000     44.62026610     15.80211595
    102.17209554     29.56188348    -18.00000000     44.61202569     17.80341577
    102.18746429     29.50777620    -18.00000000     38.43429720     17.80341581
> -Z    1     0.000     1.000     0.000     0.000    -0.000     0.000   180.000   102.180    29.535 -19.00   2   2   3   5    0.1239E+02   0.0000E+00   0.0000E+00     0.000     0.000
    102.18746429     29.50777620    -18.00000000     38.43429720     17.80341581
    102.17209554     29.56188348    -18.00000000     44.61202569     17.80341577
    102.17279505     29.56203719    -20.00000000     44.61202569     17.80341577
    102.18816033     29.50794021    -20.00000000     38.43429720     17.80341581
> -Z    1     0.000     1.000     0.000     0.000    -0.000     0.000   180.000   102.162    29.588 -11.00   2   2   4   1    0.1239E+02   0.0000E+00   0.0000E+00     0.000     0.000
    102.16929750     29.56126865    -10.00000000     44.64498753      9.79816279
    102.15391486     29.61541715    -10.00000000     50.82719937      9.86756183
    102.15461784     29.61556055    -12.00000000     50.81776998     11.86877646
    102.16999701     29.56142236    -12.00000000     44.63674702     11.79948946
> -Z    1     0.000     1.000     0.000     0.000    -0.000     0.000   180.000   102.163    29.589 -13.00   2   2   4   2    0.1239E+02   0.0000E+00   0.0000E+00     0.000     0.000
    102.16999701     29.56142236    -12.00000000     44.63674702     11.79948946
    102.15461784     29.61556055    -12.00000000     50.81776998     11.86877646
    102.15532083     29.61570396    -14.00000000     50.80834004     13.87006492
    102.17069652     29.56157607    -14.00000000     44.62850654     13.80080717
> -Z    1     0.000     1.000     0.000     0.000    -0.000     0.000   180.000   102.163    29.589 -15.00   2   2   4   3    0.1239E+02   0.0000E+00   0.0000E+00     0.000     0.000
    102.17069652     29.56157607    -14.00000000     44.62850654     13.80080717
    102.15532083     29.61570396    -14.00000000     50.80834004     13.87006492
    102.15602381     29.61584736    -16.00000000     50.79891014     15.87134499
    102.17139603     29.56172977    -16.00000000     44.62026610     15.80211595
> -Z    1     0.000     1.000     0.000     0.000    -0.000     0.000   180.000   102.164    29.589 -17.00   2   2   4   4    0.1238E+02   0.0000E+00   0.0000E+00     0.000     0.000
    102.17139603     29.56172977    -16.00000000     44.62026610     15.80211595
    102.15602381     29.61584736    -16.00000000     50.79891014     15.87134499
    102.15672679     29.61599076    -18.00000000     50.78948027     17.87261666
    102.17209554     29.56188348    -18.00000000     44.61202569     17.80341577
> -Z    1     0.000     1.000     0.000     0.000    -0.000     0.000   180.000   102.165    29.589 -19.00   2   2   4   5    0.1238E+02   0.0000E+00   0.0000E+00     0.000     0.000
    102.17209554     29.56188348    -18.00000000     44.61202569     17.80341577
    102.15672679     29.61599076    -18.00000000     50.78948027     17.87261666
    102.15742978     29.61613417    -20.00000000     50.78005043     19.87387995
    102.17279505     29.56203719    -20.00000000     44.61202569     17.80341577
> -Z    1     0.000     1.000     0.000     0.000    -0.000     0.000   180.000   102.147    29.643 -11.00   2   2   5   1    0.1239E+02   0.0000E+00   0.0000E+00     0.000     0.000
    102.15391486     29.61541715    -10.00000000     50.82719937      9.86756183
    102.13853222     29.66956565    -10.00000000     57.00913799     10.00611269
    102.13923868     29.66969875    -12.00000000     56.99851867     12.00735088
    102.15461784     29.61556055    -12.00000000     50.81776998     11.86877646
> -Z    1     0.000     1.000     0.000     0.000    -0.000     0.000   180.000   102.147    29.643 -13.00   2   2   5   2    0.1238E+02   0.0000E+00   0.0000E+00     0.000     0.000
    102.15461784     29.61556055    -12.00000000     50.81776998     11.86877646
    102.13923868     29.66969875    -12.00000000     56.99851867     12.00735088
    102.13994513     29.66983185    -14.00000000     56.98789937     14.00857645
    102.15532083     29.61570396    -14.00000000     50.80834004     13.87006492
> -Z    1     0.000     1.000     0.000     0.000    -0.000     0.000   180.000   102.148    29.643 -15.00   2   2   5   3    0.1238E+02   0.0000E+00   0.0000E+00     0.000     0.000
    102.15532083     29.61570396    -14.00000000     50.80834004     13.87006492
    102.13994513     29.66983185    -14.00000000     56.98789937     14.00857645
    102.14065159     29.66996495    -16.00000000     56.97728012     16.00979899
    102.15602381     29.61584736    -16.00000000     50.79891014     15.87134499
> -Z    1     0.000     1.000     0.000     0.000    -0.000     0.000   180.000   102.149    29.643 -17.00   2   2   5   4    0.1238E+02   0.0000E+00   0.0000E+00     0.000     0.000
    102.15602381     29.61584736    -16.00000000     50.79891014     15.87134499
    102.14065159     29.66996495    -16.00000000     56.97728012     16.00979899
    102.14135804     29.67009805    -18.00000000     56.96666090     18.01101530
    102.15672679     29.61599076    -18.00000000     50.78948027     17.87261666
> -Z    1     0.000     1.000     0.000     0.000    -0.000     0.000   180.000   102.149    29.643 -19.00   2   2   5   5    0.1238E+02   0.0000E+00   0.0000E+00     0.000     0.000
    102.15672679     29.61599076    -18.00000000     50.78948027     17.87261666
    102.14135804     29.67009805    -18.00000000     56.96666090     18.01101530
    102.14206450     29.67023115    -20.00000000     56.95604173     20.01222538
    102.15742978     29.61613417    -20.00000000     50.78005043     19.87387995
> -Z    1     0.000     1.000     0.000     0.000    -0.000     0.000   180.000   102.133    29.697 -11.00   3   2   1   1    0.1227E+02   0.0000E+00   0.0000E+00     0.000     0.000
    102.13853222     29.66956565    -10.00000000     57.00913799     10.00611269
    102.12693834     29.72376757    -10.00000000     63.11962094      9.92287282
    102.12764602     29.72389706    -12.00000000     63.10858611     11.92412187
    102.13923868     29.66969875    -12.00000000     56.99851867     12.00735088
> -Z    1     0.000     1.000     0.000     0.000    -0.000     0.000   180.000   102.134    29.697 -13.00   3   2   1   2    0.1227E+02   0.0000E+00   0.0000E+00     0.000     0.000
    102.13923868     29.66969875    -12.00000000     56.99851867     12.00735088
    102.12764602     29.72389706    -12.00000000     63.10858611     11.92412187
    102.12835370     29.72402655    -14.00000000     63.09755132     13.92536486
    102.13994513     29.66983185    -14.00000000     56.98789937     14.00857645
> -Z    1     0.000     1.000     0.000     0.000    -0.000     0.000   180.000   102.135    29.697 -15.00   3   2   1   3    0.1227E+02   0.0000E+00   0.0000E+00     0.000     0.000
    102.13994513     29.66983185    -14.00000000     56.98789937     14.00857645
    102.12835370     29.72402655    -14.00000000     63.09755132     13.92536486
    102.12906138     29.72415603    -16.00000000     63.08651657     15.92660177
    102.14065159     29.66996495    -16.00000000     56.97728012     16.00979899
> -Z    1     0.000     1.000     0.000     0.000    -0.000     0.000   180.000   102.135    29.697 -17.00   3   2   1   4    0.1226E+02   0.0000E+00   0.0000E+00     0.000     0.000
    102.14065159     29.66996495    -16.00000000     56.97728012     16.00979899
    102.12906138     29.72415603    -16.00000000     63.08651657     15.92660177
    102.12976906     29.72428552    -18.00000000     63.07548185     17.92783261
    102.14135804     29.67009805    -18.00000000     56.96666090     18.01101530
> -Z    1     0.000     1.000     0.000     0.000    -0.000     0.000   180.000   102.136    29.697 -19.00   3   2   1   5    0.1226E+02   0.0000E+00   0.0000E+00     0.000     0.000
    102.14135804     29.67009805    -18.00000000     56.96666090     18.01101530
    102.12976906     29.72428552    -18.00000000     63.07548185     17.92783261
    102.13047674     29.72441500    -20.00000000     63.06444717     19.92905739
    102.14206450     29.67023115    -20.00000000     56.95604173     20.01222538
> -Z    1     0.000     1.000     0.000     0.000    -0.000     0.000   180.000   102.121    29.751 -11.00   3   2   2   1    0.1226E+02   0.0000E+00   0.0000E+00     0.000     0.000
    102.12693834     29.72376757    -10.00000000     63.11962094      9.92287282
    102.11534446     29.77796950    -10.00000000     69.22984540      9.88125300
    102.11605337     29.77809537    -12.00000000     69.21839511     11.88250894
    102.12764602     29.72389706    -12.00000000     63.10858611     11.92412187
> -Z    1     0.000     1.000     0.000     0.000    -0.000     0.000   180.000   102.122    29.751 -13.00   3   2   2   2    0.1226E+02   0.0000E+00   0.0000E+00     0.000     0.000
    102.12764602     29.72389706    -12.00000000     63.10858611     11.92412187
    102.11605337     29.77809537    -12.00000000     69.21839511     11.88250894
    102.11676227     29.77822124    -14.00000000     69.20694486     13.88375897
    102.12835370     29.72402655    -14.00000000     63.09755132     13.92536486
> -Z    1     0.000     1.000     0.000     0.000    -0.000     0.000   180.000   102.123    29.751 -15.00   3   2   2   3    0.1226E+02   0.0000E+00   0.0000E+00     0.000     0.000
    102.12835370     29.72402655    -14.00000000     63.09755132     13.92536486
    102.11676227     29.77822124    -14.00000000     69.20694486     13.88375897
    102.11747117     29.77834712    -16.00000000     69.19549465     15.88500309
    102.12906138     29.72415603    -16.00000000     63.08651657     15.92660177
> -Z    1     0.000     1.000     0.000     0.000    -0.000     0.000   180.000   102.124    29.751 -17.00   3   2   2   4    0.1226E+02   0.0000E+00   0.0000E+00     0.000     0.000
    102.12906138     29.72415603    -16.00000000     63.08651657     15.92660177
    102.11747117     29.77834712    -16.00000000     69.19549465     15.88500309
    102.11818008     29.77847299    -18.00000000     69.18404448     17.88624130
    102.12976906     29.72428552    -18.00000000     63.07548185     17.92783261
> -Z    1     0.000     1.000     0.000     0.000    -0.000     0.000   180.000   102.124    29.751 -19.00   3   2   2   5    0.1226E+02   0.0000E+00   0.0000E+00     0.000     0.000
    102.12976906     29.72428552    -18.00000000     63.07548185     17.92783261
    102.11818008     29.77847299    -18.00000000     69.18404448     17.88624130
    102.11888898     29.77859886    -20.00000000     69.18404448     17.88624130
    102.13047674     29.72441500    -20.00000000     63.06444717     19.92905739
> -Z    1     0.000     1.000     0.000     0.000    -0.000     0.000   180.000   102.110    29.805 -11.00   3   2   3   1    0.1225E+02   0.0000E+00   0.0000E+00     0.000     0.000
    102.11534446     29.77796950    -10.00000000     69.22984540      9.88125300
    102.10375058     29.83217142    -10.00000000     75.33981135      9.88125321
    102.10446071     29.83229368    -12.00000000     75.32794565     11.88250887
    102.11605337     29.77809537    -12.00000000     69.21839511     11.88250894
> -Z    1     0.000     1.000     0.000     0.000    -0.000     0.000   180.000   102.111    29.805 -13.00   3   2   3   2    0.1225E+02   0.0000E+00   0.0000E+00     0.000     0.000
    102.11605337     29.77809537    -12.00000000     69.21839511     11.88250894
    102.10446071     29.83229368    -12.00000000     75.32794565     11.88250887
    102.10517084     29.83241594    -14.00000000     75.31607999     13.88375878
    102.11676227     29.77822124    -14.00000000     69.20694486     13.88375897
> -Z    1     0.000     1.000     0.000     0.000    -0.000     0.000   180.000   102.111    29.805 -15.00   3   2   3   3    0.1225E+02   0.0000E+00   0.0000E+00     0.000     0.000
    102.11676227     29.77822124    -14.00000000     69.20694486     13.88375897
    102.10517084     29.83241594    -14.00000000     75.31607999     13.88375878
    102.10588097     29.83253820    -16.00000000     75.30421436     15.88500295
    102.11747117     29.77834712    -16.00000000     69.19549465     15.88500309
> -Z    1     0.000     1.000     0.000     0.000    -0.000     0.000   180.000   102.112    29.806 -17.00   3   2   3   4    0.1225E+02   0.0000E+00   0.0000E+00     0.000     0.000
    102.11747117     29.77834712    -16.00000000     69.19549465     15.88500309
    102.10588097     29.83253820    -16.00000000     75.30421436     15.88500295
    102.10659109     29.83266046    -18.00000000     75.29234877     17.88624136
    102.11818008     29.77847299    -18.00000000     69.18404448     17.88624130
> -Z    1     0.000     1.000     0.000     0.000    -0.000     0.000   180.000   102.113    29.806 -19.00   3   2   3   5    0.1225E+02   0.0000E+00   0.0000E+00     0.000     0.000
    102.11818008     29.77847299    -18.00000000     69.18404448     17.88624130
    102.10659109     29.83266046    -18.00000000     75.29234877     17.88624136
    102.10730122     29.83278272    -20.00000000     75.29234877     17.88624136
    102.11888898     29.77859886    -20.00000000     69.18404448     17.88624130
> -Z    1     0.000     1.000     0.000     0.000    -0.000     0.000   180.000   102.098    29.859 -11.00   3   2   4   1    0.1225E+02   0.0000E+00   0.0000E+00     0.000     0.000
    102.10375058     29.83217142    -10.00000000     75.33981135      9.88125321
    102.09215671     29.88637335    -10.00000000     81.44951872      9.92286765
    102.09286806     29.88649200    -12.00000000     81.43723773     11.92412168
    102.10446071     29.83229368    -12.00000000     75.32794565     11.88250887
> -Z    1     0.000     1.000     0.000     0.000    -0.000     0.000   180.000   102.099    29.859 -13.00   3   2   4   2    0.1225E+02   0.0000E+00   0.0000E+00     0.000     0.000
    102.10446071     29.83229368    -12.00000000     75.32794565     11.88250887
    102.09286806     29.88649200    -12.00000000     81.43723773     11.92412168
    102.09357941     29.88661064    -14.00000000     81.42495670     13.92536431
    102.10517084     29.83241594    -14.00000000     75.31607999     13.88375878
> -Z    1     0.000     1.000     0.000     0.000    -0.000     0.000   180.000   102.100    29.860 -15.00   3   2   4   3    0.1225E+02   0.0000E+00   0.0000E+00     0.000     0.000
    102.10517084     29.83241594    -14.00000000     75.31607999     13.88375878
    102.09357941     29.88661064    -14.00000000     81.42495670     13.92536431
    102.09429076     29.88672929    -16.00000000     81.41267571     15.92660134
    102.10588097     29.83253820    -16.00000000     75.30421436     15.88500295
> -Z    1     0.000     1.000     0.000     0.000    -0.000     0.000   180.000   102.100    29.860 -17.00   3   2   4   4    0.1225E+02   0.0000E+00   0.0000E+00     0.000     0.000
    102.10588097     29.83253820    -16.00000000     75.30421436     15.88500295
    102.09429076     29.88672929    -16.00000000     81.41267571     15.92660134
    102.09500211     29.88684793    -18.00000000     81.40039475     17.92783279
    102.10659109     29.83266046    -18.00000000     75.29234877     17.88624136
> -Z    1     0.000     1.000     0.000     0.000    -0.000     0.000   180.000   102.101    29.860 -19.00   3   2   4   5    0.1224E+02   0.0000E+00   0.0000E+00     0.000     0.000
    102.10659109     29.83266046    -18.00000000     75.29234877     17.88624136
    102.09500211     29.88684793    -18.00000000     81.40039475     17.92783279
    102.09571346     29.88696658    -20.00000000     81.40039475     17.92783279
    102.10730122     29.83278272    -20.00000000     75.29234877     17.88624136
> -Z    1     0.000     1.000     0.000     0.000    -0.000     0.000   180.000   102.087    29.914 -11.00   3   2   5   1    0.1224E+02   0.0000E+00   0.0000E+00     0.000     0.000
    102.09215671     29.88637335    -10.00000000     81.44951872      9.92286765
    102.08056283     29.94057528    -10.00000000     87.55896774     10.00611375
    102.08127540     29.94069031    -12.00000000     81.40039475     17.92783279
    102.09286806     29.88649200    -12.00000000     81.43723773     11.92412168
> -Z    1     0.000     1.000     0.000     0.000    -0.000     0.000   180.000   102.087    29.914 -13.00   3   2   5   2    0.1224E+02   0.0000E+00   0.0000E+00     0.000     0.000
    102.09286806     29.88649200    -12.00000000     81.43723773     11.92412168
    102.08127540     29.94069031    -12.00000000     87.55896774     10.00611375
    102.08198798     29.94080534    -14.00000000     81.40039475     17.92783279
    102.09357941     29.88661064    -14.00000000     81.42495670     13.92536431
> -Z    1     0.000     1.000     0.000     0.000    -0.000     0.000   180.000   102.088    29.914 -15.00   3   2   5   3    0.1224E+02   0.0000E+00   0.0000E+00     0.000     0.000
    102.09357941     29.88661064    -14.00000000     81.42495670     13.92536431
    102.08198798     29.94080534    -14.00000000     87.55896774     10.00611375
    102.08270055     29.94092037    -16.00000000     81.40039475     17.92783279
    102.09429076     29.88672929    -16.00000000     81.41267571     15.92660134
> -Z    1     0.000     1.000     0.000     0.000    -0.000     0.000   180.000   102.089    29.914 -17.00   3   2   5   4    0.1224E+02   0.0000E+00   0.0000E+00     0.000     0.000
    102.09429076     29.88672929    -16.00000000     81.41267571     15.92660134
    102.08270055     29.94092037    -16.00000000     87.55896774     10.00611375
    102.08341312     29.94103541    -18.00000000     81.40039475     17.92783279
    102.09500211     29.88684793    -18.00000000     81.40039475     17.92783279
> -Z    1     0.000     1.000     0.000     0.000    -0.000     0.000   180.000   102.090    29.914 -19.00   3   2   5   5    0.1224E+02   0.0000E+00   0.0000E+00     0.000     0.000
    102.09500211     29.88684793    -18.00000000     81.40039475     17.92783279
    102.08341312     29.94103541    -18.00000000     87.55896774     10.00611375
    102.08412570     29.94115044    -20.00000000     81.40039475     17.92783279
    102.09571346     29.88696658    -20.00000000     81.40039475     17.92783279
